1644348092.00
64.000000
-0.00
-0.00
-0.00
-0.00
-0.00
-0.00
-0.00
-0.00
-0.00
-0.00
0.00
0.01
0.01
-0.00
-0.03
-0.05
-0.05
0.00
0.13
0.36
0.66
1.01
1.37
1.72
2.06
2.40
2.79
3.24
3.80
4.42
5.06
5.66
6.20
6.68
7.15
7.68
8.31
9.14
10.09
11.04
11.88
12.56
13.14
13.76
14.65
15.96
17.91
20.32
22.90
25.38
27.58
29.57
31.68
34.32
37.81
42.54
48.15
54.10
59.83
64.97
69.58
74.14
79.34
85.71
93.76
103.00
112.62
121.73
129.77
136.75
143.30
150.75
157.77
166.64
177.95
191.79
206.97
220.57
228.25
225.36
208.53
176.87
132.76
80.05
23.07
-34.94
-92.44
-149.16
-205.23
-260.37
-313.74
-363.87
-409.83
-450.91
-486.50
-515.74
-537.23
-549.22
-549.96
-538.37
-514.21
-478.67
-433.88
-382.45
-327.02
-269.84
-212.64
-156.66
-102.95
-52.38
-5.90
35.58
71.43
101.37
125.53
144.43
158.76
169.25
176.50
180.92
182.79
182.33
179.82
175.60
170.08
163.66
156.69
149.41
141.97
134.43
126.83
119.21
111.65
104.20
96.94
89.93
83.18
76.73
70.57
64.73
59.20
54.01
49.16
44.64
40.47
36.64
33.14
29.96
27.10
24.56
22.33
20.42
18.80
17.48
16.44
15.67
15.16
14.89
14.84
15.00
15.34
15.86
16.52
17.33
18.27
19.34
20.55
21.87
23.29
24.80
26.35
27.87
29.26
30.40
31.15
31.35
30.86
29.57
27.40
24.34
20.46
15.82
10.63
5.10
-0.50
-5.91
-10.88
-15.21
-18.74
-21.38
-23.10
-23.92
-23.96
-23.31
-22.14
-20.56
-18.71
-16.68
-14.56
-12.36
-10.10
-7.80
-5.47
-3.10
-0.69
1.78
4.31
6.91
9.59
12.39
15.24
18.12
21.02
23.95
26.95
30.06
33.35
36.89
40.80
45.00
49.44
54.11
59.00
64.12
69.47
75.09
81.02
87.37
93.93
100.57
107.22
113.84
120.41
126.92
133.39
139.89
146.49
152.88
158.79
163.97
168.17
171.05
172.14
170.81
166.10
159.70
152.13
143.77
134.86
125.61
116.24
106.96
97.96
89.46
81.66
74.37
67.44
60.81
54.43
48.32
42.52
37.09
32.09
27.60
23.38
19.25
15.13
10.99
6.94
3.07
-0.48
-3.64
-6.42
-9.11
-11.97
-15.17
-18.75
-22.59
-26.48
-30.22
-33.74
-37.16
-40.87
-45.25
-50.53
-56.67
-63.31
-69.97
-76.27
-82.09
-87.79
-94.09
-101.72
-111.16
-122.40
-134.87
-147.80
-160.53
-172.79
-184.94
-197.66
-211.72
-227.71
-245.95
-266.39
-288.53
-311.28
-332.87
-351.13
-364.10
-370.77
-371.52
-367.83
-361.46
-353.40
-343.28
-329.66
-310.95
-286.59
-257.64
-226.53
-196.21
-169.00
-145.92
-126.63
-109.93
-94.50
-79.53
-65.01
-51.55
-39.91
-30.55
-23.31
-17.50
-12.26
-6.99
-1.62
3.49
7.86
11.23
13.81
16.10
18.58
21.27
23.62
24.55
22.87
17.75
9.17
-1.83
-13.22
-22.32
-26.55
-24.12
-14.53
1.29
21.37
43.31
64.94
84.64
101.37
114.46
123.31
127.44
126.62
121.15
111.95
100.38
87.90
75.58
63.87
52.54
41.08
28.96
16.02
2.60
-10.58
-22.61
-32.68
-40.30
-45.55
-49.04
-51.85
-55.22
-60.18
-67.19
-75.80
-84.64
-91.62
-94.43
-91.17
-80.94
-64.12
-42.28
-17.75
7.07
30.24
50.56
67.53
81.05
91.11
97.72
100.98
101.28
99.37
96.32
93.30
91.34
91.09
92.70
95.92
100.14
104.63
108.69
111.85
113.99
115.25
115.98
116.47
116.83
116.73
115.60
112.67
107.33
99.28
88.66
76.16
62.98
50.74
41.21
35.95
35.83
40.55
48.56
57.26
63.73
65.79
62.80
56.12
48.59
43.40
42.81
47.27
55.47
65.10
73.91
80.59
84.86
87.11
87.83
87.36
85.98
84.08
82.24
81.08
80.79
80.95
80.66
78.95
75.16
69.19
61.44
52.60
43.47
34.69
26.48
18.37
9.22
-2.32
-16.88
-33.22
-47.76
-55.12
-49.84
-28.63
8.08
55.93
107.99
157.13
198.03
228.14
247.43
257.19
259.01
254.18
243.72
228.72
210.44
190.18
168.93
147.29
125.41
103.29
81.00
58.87
37.42
17.24
-1.19
-17.69
-32.55
-46.42
-60.25
-74.92
-90.91
-108.11
-125.78
-142.84
-158.30
-171.47
-182.17
-190.55
-196.80
-200.99
-203.01
-202.84
-200.82
-197.79
-194.95
-193.35
-193.34
-194.27
-194.72
-193.04
-188.26
-180.51
-171.08
-161.81
-154.34
-149.57
-147.58
-147.98
-150.31
-154.37
-160.11
-167.32
-175.39
-183.25
-189.59
-193.12
-192.87
-188.26
-179.18
-165.90
-149.21
-130.32
-110.77
-92.18
-75.85
-62.54
-52.34
-44.87
-39.49
-35.67
-33.13
-31.85
-31.84
-33.06
-35.30
-38.32
-42.07
-46.82
-53.09
-61.16
-70.52
-79.41
-85.10
-84.54
-75.44
-57.30
-31.54
-1.14
30.41
60.11
86.09
107.59
124.64
137.49
146.34
151.32
152.84
151.88
150.04
149.30
151.37
157.12
166.13
176.75
186.69
193.80
196.71
195.12
189.70
181.53
171.68
160.95
149.73
138.19
126.35
114.24
101.84
89.15
76.25
63.39
51.03
39.87
30.64
23.94
19.97
18.29
17.75
16.67
13.41
7.00
-2.28
-12.78
-21.95
-27.19
-26.73
-20.29
-9.09
4.66
18.51
30.31
38.72
43.11
43.43
39.98
33.20
23.52
11.40
-2.65
-17.91
-33.44
-48.24
-61.32
-72.09
-80.41
-86.75
-91.92
-96.94
-102.68
-109.71
-118.18
-127.72
-137.40
-145.75
-150.98
-151.55
-146.84
-137.50
-125.49
-113.40
-103.49
-96.97
-93.79
-93.23
-94.63
-97.89
-103.37
-111.06
-119.82
-127.00
-129.09
-122.86
-106.70
-81.33
-49.47
-14.89
18.82
49.21
75.21
96.72
114.01
127.18
135.94
139.92
139.11
134.15
126.44
117.80
110.00
104.28
101.11
100.24
101.05
102.89
105.46
108.84
113.25
118.82
125.29
131.97
137.89
142.10
144.00
143.39
140.43
135.31
127.97
117.92
104.39
86.64
64.32
37.90
8.62
-21.61
-50.61
-76.23
-96.75
-111.05
-118.87
-120.81
-118.26
-113.02
-106.74
-100.32
-93.44
-84.65
-72.06
-54.33
-31.68
-6.15
18.77
39.36
52.96
58.78
58.06
53.29
47.14
41.50
36.97
32.97
28.21
21.36
11.56
-1.21
-16.09
-31.49
-45.57
-56.80
-64.38
-68.32
-69.30
-68.22
-65.95
-63.18
-60.63
-59.21
-60.07
-64.26
-72.21
-83.22
-95.29
-105.46
-110.56
-108.27
-97.87
-80.38
-58.26
-34.47
-11.61
8.72
26.02
40.48
52.45
62.04
69.03
73.04
73.90
71.89
67.72
62.36
56.77
51.67
47.33
43.59
39.89
35.38
29.15
20.61
9.77
-2.55
-14.72
-24.82
-31.18
-33.14
-31.23
-27.12
-22.98
-20.74
-21.54
-25.56
-32.18
-40.14
-47.66
-52.46
-51.88
-43.36
-25.30
2.21
37.10
75.79
114.30
149.35
179.15
203.18
221.64
234.70
242.22
243.98
240.04
231.17
218.61
203.65
187.16
169.48
150.70
131.05
111.19
92.07
74.47
58.53
43.60
28.40
11.80
-6.61
-26.05
-44.67
-60.32
-71.41
-77.75
-80.75
-83.03
-87.46
-96.06
-109.10
-124.96
-140.78
-153.35
-160.15
-160.00
-153.24
-141.59
-127.75
-114.81
-105.61
-102.10
-105.05
-113.89
-127.03
-142.44
-158.21
-172.93
-185.73
-196.03
-203.22
-206.46
-204.95
-198.22
-186.52
-170.90
-152.89
-134.12
-115.80
-98.57
-82.71
-68.59
-57.04
-49.47
-47.45
-51.94
-62.66
-77.62
-93.29
-105.50
-110.61
-106.61
-93.80
-74.50
-52.14
-30.02
-10.34
6.16
19.71
30.77
39.49
45.56
48.58
48.51
45.91
41.77
37.10
32.57
28.41
24.55
20.80
17.14
13.65
10.50
7.76
5.33
2.85
-0.14
-4.16
-9.51
-16.24
-24.16
-33.02
-42.80
-53.55
-65.25
-77.28
-88.18
-95.83
-98.05
-93.33
-81.41
-63.34
-41.12
-17.02
6.90
29.09
48.60
64.93
77.90
87.57
94.19
98.05
99.54
99.18
97.62
95.67
94.14
93.61
94.27
96.00
98.47
101.42
104.67
108.05
111.26
113.80
115.02
114.43
111.90
107.79
102.75
97.32
91.58
85.19
77.74
69.38
61.21
55.12
53.09
56.22
64.02
74.43
84.49
91.44
93.62
90.78
83.80
73.97
62.29
49.26
34.96
19.53
3.29
-13.19
-29.37
-45.03
-60.44
-76.16
-92.65
-109.82
-126.87
-142.23
-153.88
-159.88
-158.99
-151.22
-138.18
-122.66
-107.90
-96.59
-90.01
-87.89
-88.90
-91.39
-94.03
-95.80
-95.55
-91.63
-82.06
-65.14
-40.43
-9.34
25.13
59.32
89.96
114.96
133.65
146.37
154.00
157.53
157.82
155.70
152.06
147.97
144.66
143.21
144.17
147.23
151.17
154.26
155.06
153.22
149.80
146.81
146.27
149.11
154.51
160.00
162.20
157.85
144.81
122.57
92.38
56.84
19.10
-18.09
-53.05
-85.54
-116.19
-145.65
-173.57
-198.10
-216.26
-224.84
-221.71
-206.54
-180.92
-147.85
-110.88
-73.25
-37.42
-4.91
23.52
47.58
67.26
82.81
94.77
104.10
112.02
119.67
127.62
135.57
142.27
145.93
144.89
138.16
125.75
108.53
87.81
64.81
40.48
15.54
-9.28
-32.87
-53.69
-69.94
-80.13
-83.60
-80.92
-73.88
-64.93
-56.39
-49.75
-45.30
-42.20
-39.05
-34.36
-27.02
-16.36
-2.09
15.73
36.71
59.90
83.72
106.08
124.74
137.89
144.60
145.05
140.41
132.35
122.55
112.12
101.56
90.80
79.58
67.78
55.51
43.22
31.63
21.62
14.17
10.06
9.60
12.31
16.82
21.24
23.63
22.68
18.03
10.25
0.41
-10.46
-21.73
-33.30
-45.53
-59.09
-74.77
-93.02
-113.58
-134.97
-154.42
-168.29
-173.03
-166.40
-148.26
-120.71
-87.34
-52.04
-17.93
13.14
40.47
63.98
83.60
99.10
110.16
116.71
119.09
118.09
114.59
109.36
102.88
95.52
87.63
79.79
72.66
66.77
62.27
58.81
55.74
52.35
48.09
42.70
36.09
28.28
19.32
9.42
-0.98
-11.39
-21.42
-31.04
-40.71
-51.03
-62.34
-74.15
-85.12
-93.47
-97.69
-97.31
-93.17
-87.16
-81.50
-77.99
-77.50
-80.01
-84.81
-91.02
-97.75
-104.27
-109.93
-114.18
-116.64
-117.15
-115.80
-112.78
-108.35
-102.76
-96.27
-89.30
-82.49
-76.64
-72.43
-70.26
-70.03
-71.02
-72.13
-72.09
-69.97
-65.47
-59.15
-52.42
-47.10
-44.88
-46.65
-52.06
-59.46
-66.29
-69.71
-67.41
-58.08
-41.69
-19.41
6.63
33.69
58.89
79.65
94.25
102.17
104.24
102.39
98.90
95.56
92.99
90.49
86.52
79.57
69.18
56.47
44.05
35.05
31.88
35.20
43.73
54.84
65.68
74.17
79.18
80.35
77.45
70.23
58.58
42.98
24.77
5.75
-12.55
-29.49
-45.30
-60.40
-74.50
-86.14
-93.06
-93.33
-86.41
-73.78
-58.68
-44.96
-35.86
-33.05
-36.38
-44.36
-54.82
-65.76
-75.69
-83.66
-89.06
-91.34
-89.90
-84.21
-74.26
-60.81
-45.41
-30.01
-16.28
-4.96
4.23
12.25
19.96
27.42
33.81
37.79
38.21
34.65
27.57
17.90
6.76
-4.69
-15.17
-23.10
-26.60
-23.99
-14.32
2.09
23.64
47.79
71.74
93.09
110.14
121.99
128.31
129.16
124.90
116.19
104.06
89.89
75.16
61.20
48.81
38.26
29.31
21.59
14.83
9.06
4.44
1.02
-1.40
-3.26
-5.09
-7.26
-9.88
-12.93
-16.48
-20.94
-27.06
-35.80
-47.88
-63.42
-81.74
-101.33
-120.22
-136.26
-147.82
-154.02
-155.01
-151.84
-146.16
-139.65
-133.39
-127.35
-120.38
-110.76
-97.25
-80.02
-61.15
-43.97
-31.81
-26.62
-28.22
-34.48
-42.26
-48.57
-51.36
-49.71
-43.68
-34.10
-22.53
-11.17
-2.60
0.84
-2.14
-11.28
-24.80
-39.93
-53.98
-65.15
-73.03
-78.70
-84.17
-91.54
-101.97
-114.95
-128.05
-137.49
-139.26
-130.47
-110.27
-80.17
-43.49
-4.34
33.47
67.20
95.42
117.79
134.70
146.95
155.47
161.27
165.21
168.01
170.12
171.73
172.86
173.42
173.22
171.90
168.89
163.47
155.07
143.54
129.32
113.35
96.56
79.49
62.03
43.63
23.88
2.99
-18.03
-37.75
-55.08
-69.92
-83.31
-97.07
-112.93
-131.57
-151.97
-171.36
-185.83
-191.36
-184.98
-165.65
-134.62
-95.17
-51.91
-9.68
27.31
56.14
75.49
85.64
88.24
85.77
80.95
75.92
71.59
67.57
62.47
54.80
43.75
29.68
13.93
-1.67
-15.50
-26.47
-34.09
-38.14
-38.59
-35.67
-30.12
-23.37
-17.32
-13.89
-14.34
-18.74
-25.97
-34.22
-41.74
-47.70
-52.49
-57.59
-64.85
-75.60
-89.94
-106.50
-122.58
-134.93
-140.50
-137.26
-124.66
-103.64
-76.41
-45.85
-14.91
13.96
39.16
59.95
76.25
88.29
96.32
100.54
101.25
99.07
95.04
90.54
86.94
85.16
85.40
87.16
89.56
91.77
93.45
94.76
96.26
98.54
101.92
106.28
111.09
115.54
118.61
119.37
117.11
111.60
103.23
92.89
81.52
69.72
57.28
43.18
26.17
5.54
-17.95
-41.74
-61.73
-73.42
-73.24
-59.80
-34.39
-0.65
36.48
72.11
102.39
125.00
139.08
144.75
142.75
134.25
120.86
104.57
87.49
71.53
57.98
47.27
39.07
32.59
26.99
21.69
16.45
11.43
6.88
2.89
-0.71
-4.41
-8.83
-14.49
-21.58
-29.94
-39.16
-48.76
-58.30
-67.44
-75.81
-83.10
-89.02
-93.40
-96.20
-97.54
-97.65
-96.73
-94.81
-91.64
-86.72
-79.36
-68.94
-55.15
-38.32
-19.52
-0.47
16.71
30.03
38.06
40.25
37.01
29.51
19.35
8.18
-2.58
-11.87
-19.00
-23.62
-25.64
-25.31
-23.18
-19.93
-16.24
-12.59
-9.24
-6.27
-3.71
-1.62
-0.09
0.86
1.32
1.43
1.20
0.35
-1.67
-5.53
-11.75
-20.31
-30.36
-40.11
-47.10
-48.77
-43.19
-29.74
-9.35
15.77
42.80
69.04
92.54
112.20
127.61
138.73
145.69
148.74
148.26
144.92
139.62
133.52
127.84
123.78
122.29
123.87
128.48
135.43
143.59
151.37
156.85
158.00
153.02
141.07
122.87
100.88
78.56
59.16
44.35
33.60
24.74
15.11
2.88
-12.49
-30.33
-49.50
-68.73
-86.61
-101.22
-110.10
-110.87
-102.34
-85.53
-63.77
-41.83
-24.37
-14.35
-12.22
-15.94
-22.03
-26.94
-28.34
-25.83
-20.78
-15.34
-11.36
-9.54
-9.41
-9.93
-10.42
-11.04
-12.69
-16.46
-23.02
-32.26
-43.43
-55.56
-67.78
-79.50
-90.34
-100.02
-108.38
-115.50
-121.74
-127.61
-133.39
-138.74
-142.60
-143.43
-139.85
-131.33
-118.50
-102.97
-86.67
-71.14
-57.13
-44.73
-33.78
-24.45
-17.31
-13.13
-12.39
-14.88
-19.74
-25.71
-31.68
-37.02
-41.72
-46.23
-51.02
-56.16
-60.98
-64.34
-65.08
-62.76
-58.10
-52.89
-49.32
-49.07
-52.64
-59.20
-66.96
-73.86
-78.03
-78.09
-73.12
-62.67
-46.86
-26.59
-3.57
19.97
41.80
60.28
74.61
84.74
90.98
93.58
92.54
87.78
79.53
68.49
55.91
43.27
31.86
22.42
14.98
8.97
3.44
-2.52
-9.55
-17.89
-27.36
-37.58
-48.23
-59.14
-70.46
-82.46
-95.38
-109.04
-122.64
-134.54
-142.56
-144.37
-138.18
-123.33
-100.64
-72.34
-41.57
-11.70
14.49
35.26
50.14
59.70
65.11
67.63
68.10
66.84
63.70
58.36
50.71
40.92
29.60
17.81
7.00
-1.17
-5.21
-4.52
0.16
6.53
11.31
11.23
4.22
-10.01
-29.95
-52.90
-75.69
-95.16
-108.38
-112.87
-106.95
-90.25
-64.09
-31.33
4.29
39.08
70.35
96.72
117.94
134.43
146.73
155.30
160.63
163.37
164.45
165.03
166.25
169.06
173.93
180.61
188.03
194.54
198.18
197.35
191.16
179.62
163.36
143.34
120.65
96.71
73.64
54.12
40.80
34.94
35.29
37.87
37.29
28.90
10.71
-15.86
-46.82
-77.49
-104.27
-125.47
-141.07
-151.95
-159.19
-163.90
-167.23
-170.36
-174.08
-178.22
-181.50
-181.99
-177.99
-168.86
-155.26
-138.81
-121.44
-104.79
-90.05
-78.03
-69.24
-63.84
-61.53
-61.41
-62.28
-63.07
-63.33
-63.45
-64.59
-68.21
-75.21
-85.32
-96.77
-106.40
-110.53
-106.07
-91.65
-68.15
-38.40
-6.21
24.83
52.30
75.25
93.86
108.85
120.96
130.77
138.59
144.57
148.74
151.03
151.55
150.66
149.20
148.34
149.33
152.96
159.26
167.40
176.04
183.69
189.22
191.91
191.39
187.42
179.80
168.49
153.82
136.60
118.08
99.37
80.96
62.48
43.06
22.12
0.14
-21.09
-38.91
-50.94
-56.02
-54.61
-48.39
-39.38
-29.04
-17.97
-6.20
6.18
18.58
29.75
38.07
42.05
40.76
34.18
23.29
9.93
-3.55
-14.91
-22.61
-26.32
-26.89
-25.94
-25.18
-25.61
-27.34
-29.68
-31.66
-32.48
-31.77
-29.53
-26.00
-21.46
-16.18
-10.48
-4.84
0.11
3.51
4.33
1.45
-6.17
-19.10
-36.96
-58.33
-80.80
-101.54
-117.98
-128.34
-131.74
-128.11
-117.93
-102.08
-81.95
-59.51
-37.14
-17.22
-1.58
9.04
15.08
17.97
19.62
21.89
26.07
32.76
41.86
52.79
64.67
76.62
87.81
97.53
105.17
110.19
112.26
111.33
107.69
101.86
94.46
85.97
76.73
67.01
57.25
48.15
40.49
34.89
31.59
30.61
31.98
36.15
43.98
56.37
73.63
94.92
118.08
140.04
157.61
168.43
171.54
167.51
158.01
145.21
131.12
117.26
104.53
93.42
84.17
76.87
71.38
67.29
63.90
60.54
56.85
52.99
49.53
46.90
44.87
42.27
37.26
28.06
13.74
-5.38
-27.87
-51.88
-75.94
-99.45
-122.66
-146.45
-171.91
-200.00
-231.00
-263.98
-296.28
-323.74
-341.54
-345.74
-334.79
-310.14
-275.88
-237.33
-199.54
-166.23
-139.49
-119.98
-107.37
-100.53
-97.56
-95.98
-93.11
-86.69
-75.45
-59.52
-40.27
-20.05
-1.56
13.03
22.69
28.10
31.42
35.57
42.94
54.23
67.92
80.67
88.68
89.03
80.58
64.10
41.59
15.47
-12.18
-39.75
-65.96
-89.65
-109.90
-126.14
-138.60
-148.22
-156.53
-165.10
-175.00
-186.30
-198.03
-208.21
-214.45
-214.45
-206.67
-190.53
-166.44
-135.32
-98.14
-55.69
-8.96
40.22
88.73
132.29
166.49
188.28
197.13
195.29
186.75
175.68
165.03
155.95
148.32
141.69
135.96
131.38
128.11
125.67
122.91
118.38
111.06
100.76
88.04
74.05
60.02
46.96
35.40
25.39
16.26
6.79
-4.65
-19.61
-38.99
-62.61
-89.07
-115.90
-140.07
-158.62
-169.18
-170.47
-162.42
-146.08
-123.40
-96.82
-69.01
-42.53
-19.52
-1.44
11.03
18.16
20.87
20.44
18.06
14.58
10.48
5.98
1.33
-3.00
-6.32
-7.87
-7.09
-3.81
1.73
8.88
16.78
24.50
31.09
35.74
37.86
37.22
34.11
29.30
23.66
17.85
11.68
4.10
-6.38
-20.86
-39.23
-59.64
-78.86
-93.16
-99.25
-95.16
-80.39
-55.86
-23.66
13.18
51.05
86.24
115.58
137.23
150.88
157.62
159.13
156.94
151.85
144.09
133.82
121.62
108.65
96.29
85.62
76.95
69.89
63.66
57.50
50.94
43.74
35.81
27.13
17.94
8.78
0.41
-6.59
-12.45
-18.48
-26.87
-39.95
-59.11
-83.85
-111.57
-138.07
-158.74
-169.88
-169.71
-158.57
-138.56
-112.77
-84.39
-56.20
-30.34
-8.21
9.40
22.36
31.22
37.04
41.10
44.47
47.68
50.61
52.81
53.82
53.53
52.26
50.62
49.18
48.22
47.66
47.15
46.34
45.06
43.32
41.26
39.03
36.78
34.76
33.33
32.96
33.99
36.50
40.29
44.99
50.36
56.49
63.81
72.82
83.73
96.18
109.21
121.47
131.59
138.55
141.82
141.36
137.44
130.46
120.82
108.80
94.71
78.92
61.93
44.51
27.59
12.20
-0.69
-10.46
-17.04
-20.98
-23.35
-25.30
-27.82
-31.49
-36.49
-42.78
-50.22
-58.64
-67.88
-77.72
-87.92
-98.39
-109.13
-120.26
-131.71
-143.02
-153.27
-161.16
-165.60
-166.02
-162.66
-156.44
-148.51
-139.73
-130.42
-120.40
-109.42
-97.73
-86.24
-76.45
-69.73
-66.79
-67.27
-69.75
-72.18
-72.44
-68.98
-61.16
-49.42
-35.14
-20.24
-6.56
4.72
13.27
19.45
23.69
25.89
25.29
20.77
11.52
-2.44
-20.14
-39.89
-59.68
-77.32
-90.59
-97.42
-96.31
-86.88
-70.06
-47.85
-22.55
3.89
30.19
55.39
78.28
97.14
109.99
115.42
113.24
104.70
92.00
77.55
63.34
50.71
40.49
33.19
29.13
28.31
30.30
34.23
38.84
42.73
44.54
43.20
38.16
29.52
18.04
4.86
-8.91
-22.68
-36.65
-51.73
-68.99
-88.81
-110.08
-129.95
-144.22
-148.49
-139.51
-116.39
-81.00
-37.59
8.59
52.71
91.57
123.96
150.29
171.63
188.74
201.41
208.32
207.42
196.76
175.35
143.79
104.43
60.91
17.36
-22.55
-56.31
-82.89
-102.65
-116.99
-127.79
-136.96
-146.00
-155.70
-165.98
-175.78
-183.04
-185.01
-178.65
-161.31
-131.58
-90.04
-39.50
15.49
69.77
118.98
160.69
194.50
221.62
243.71
261.98
276.74
287.50
293.18
292.51
284.25
267.46
241.91
208.44
169.13
127.09
85.68
47.71
14.87
-12.46
-34.84
-53.28
-68.87
-82.56
-95.17
-107.35
-119.51
-131.60
-143.14
-153.34
-161.41
-166.97
-170.28
-172.25
-174.22
-177.56
-183.21
-191.37
-201.14
-210.63
-217.16
-217.95
-210.82
-194.90
-170.98
-141.29
-108.87
-76.69
-46.98
-20.96
0.96
18.89
33.02
43.54
50.71
54.99
57.13
58.01
58.56
59.49
61.10
63.26
65.35
66.47
65.72
62.55
56.98
49.53
40.96
31.93
22.72
13.29
3.52
-6.47
-16.21
-25.05
-32.50
-38.47
-43.26
-47.17
-50.14
-51.54
-50.35
-45.63
-37.05
-25.11
-11.03
3.66
17.62
30.01
40.64
49.75
57.81
65.22
72.12
78.37
83.61
87.45
89.57
89.85
88.42
85.71
82.40
79.46
77.86
78.33
80.94
85.00
89.18
92.01
92.50
90.58
87.10
83.38
80.57
79.12
78.64
78.15
76.68
73.75
69.85
66.30
65.03
68.07
77.02
92.62
114.35
140.18
166.71
189.71
205.12
210.10
203.93
188.05
165.42
139.37
112.45
85.99
60.29
35.39
11.69
-9.85
-28.16
-42.68
-53.75
-62.52
-70.41
-78.46
-87.06
-95.95
-104.74
-113.27
-121.78
-130.76
-140.61
-151.32
-162.44
-173.36
-183.69
-193.55
-203.65
-214.76
-227.04
-239.51
-249.88
-254.96
-251.54
-237.46
-212.25
-177.37
-135.84
-91.48
-48.08
-8.74
24.54
50.94
70.75
85.03
95.17
102.44
107.57
110.69
111.45
109.50
104.98
98.85
92.65
88.08
86.27
87.37
90.61
94.87
99.30
103.81
108.88
115.10
122.47
130.23
137.04
141.57
142.89
140.69
135.03
126.12
114.19
99.81
84.16
69.17
57.24
50.50
50.09
55.74
65.78
77.75
89.04
97.54
101.88
101.46
96.34
87.08
74.67
60.30
45.27
30.73
17.48
5.93
-3.80
-11.73
-17.90
-22.39
-25.55
-28.02
-30.75
-34.62
-40.12
-47.24
-55.75
-65.59
-77.27
-91.73
-109.97
-132.32
-158.08
-185.53
-212.39
-236.44
-256.03
-270.19
-278.42
-280.38
-275.74
-264.38
-246.80
-224.46
-199.72
-175.45
-154.10
-136.94
-123.58
-112.32
-100.98
-88.01
-73.10
-57.15
-41.59
-27.51
-15.16
-3.94
7.15
18.83
31.19
43.69
55.57
66.35
76.17
85.69
95.47
105.37
114.06
119.32
118.88
111.59
98.20
81.44
65.08
52.63
46.09
45.48
49.19
54.92
60.56
64.80
67.10
67.42
65.84
62.35
56.96
49.88
41.58
32.88
24.67
17.75
12.50
8.96
6.76
5.43
4.50
3.68
2.85
1.93
0.77
-0.92
-3.52
-7.33
-12.33
-18.11
-23.98
-29.34
-34.05
-38.67
-44.27
-51.89
-61.81
-73.13
-83.85
-91.39
-93.53
-89.10
-78.22
-62.14
-42.71
-21.88
-1.43
17.20
33.00
45.35
54.16
59.73
62.55
63.08
61.60
58.27
53.34
47.41
41.35
36.16
32.55
30.78
30.52
31.05
31.55
31.40
30.35
28.45
25.90
22.87
19.32
14.87
8.98
1.09
-9.21
-22.03
-37.18
-54.00
-71.39
-87.72
-101.07
-109.62
-112.23
-108.89
-100.91
-90.67
-80.88
-73.80
-70.58
-71.01
-73.79
-77.22
-79.92
-81.22
-81.23
-80.48
-79.47
-78.28
-76.54
-73.63
-69.16
-63.15
-56.13
-48.88
-42.11
-36.19
-31.10
-26.53
-22.14
-17.81
-13.72
-10.34
-8.35
-8.35
-10.82
-15.90
-23.27
-32.03
-40.62
-46.91
-48.65
-44.07
-32.47
-14.51
7.94
32.34
56.21
77.65
95.47
109.09
118.10
122.20
121.23
115.43
105.66
93.34
80.14
67.46
56.08
46.09
37.12
28.78
20.83
13.20
5.80
-1.62
-9.49
-18.14
-27.58
-37.34
-46.71
-55.01
-61.94
-67.78
-73.22
-79.04
-85.56
-92.33
-97.94
-100.38
-97.62
-88.31
-72.44
-51.36
-27.44
-3.35
18.64
37.14
51.55
61.84
68.18
70.80
70.03
66.34
60.47
53.23
45.50
37.98
31.21
25.55
21.24
18.34
16.66
15.89
15.56
15.25
14.66
13.68
12.30
10.48
8.16
5.20
1.45
-3.28
-9.24
-16.67
-25.61
-35.69
-45.91
-54.60
-59.84
-60.04
-54.51
-43.71
-29.11
-12.57
4.20
20.07
34.46
47.16
58.00
66.68
72.79
76.00
76.25
73.86
69.53
64.21
58.89
54.39
51.21
49.44
48.87
49.11
49.87
51.02
52.56
54.41
56.26
57.57
57.70
56.14
52.77
47.83
41.77
35.01
27.78
20.09
11.95
3.50
-4.83
-12.42
-18.68
-23.23
-26.01
-27.22
-27.05
-25.51
-22.34
-17.26
-10.20
-1.66
7.24
15.01
20.36
22.67
22.34
20.69
19.45
20.12
23.50
29.51
37.37
45.97
54.29
61.64
67.74
72.64
76.56
79.69
82.14
83.75
84.13
82.70
78.91
72.63
64.60
56.51
50.84
50.12
56.02
68.68
86.59
107.05
127.10
144.40
157.74
167.15
173.61
178.53
183.38
189.18
196.21
203.84
210.64
214.81
214.89
210.25
201.41
189.79
177.19
165.25
155.12
147.36
142.14
139.43
139.04
140.65
143.75
147.67
151.66
155.11
157.57
158.81
158.79
157.51
154.91
150.76
144.72
136.27
124.89
110.22
92.22
71.28
48.22
24.12
0.02
-23.43
-46.16
-68.72
-91.94
-116.51
-142.54
-169.34
-195.68
-220.19
-242.09
-261.56
-279.80
-298.56
-319.44
-343.21
-369.65
-397.73
-425.97
-453.08
-478.19
-501.02
-521.95
-542.24
-564.21
-590.69
-623.68
-662.60
-703.09
-737.47
-757.13
-755.76
-732.02
-689.95
-637.14
-581.47
-528.36
-479.80
-435.29
-393.74
-354.83
-319.30
-287.99
-260.86
-236.60
-213.24
-189.12
-163.77
-137.98
-113.48
-91.92
-74.11
-59.72
-47.43
-35.53
-22.62
-8.14
7.54
23.32
37.95
50.51
60.75
69.13
76.57
84.12
92.54
102.02
112.18
122.21
131.14
138.30
143.57
147.50
151.17
155.84
162.45
171.28
181.79
192.93
203.52
212.76
220.56
227.51
234.66
243.29
254.68
269.77
288.62
309.73
329.68
343.52
345.99
333.42
305.43
265.72
221.31
180.42
149.80
132.66
128.09
132.07
139.48
146.00
149.16
148.29
143.87
136.90
128.70
121.04
116.16
116.33
122.74
134.46
148.02
158.20
159.57
148.33
123.38
86.69
42.52
-4.05
-48.64
-88.76
-124.01
-155.23
-183.13
-207.11
-225.10
-234.46
-233.56
-223.00
-205.52
-184.71
-163.22
-141.65
-118.96
-94.14
-67.93
-43.29
-24.38
-14.49
-14.20
-20.99
-30.40
-37.85
-40.28
-36.73
-27.66
-13.94
3.91
25.71
51.06
78.79
106.95
133.26
155.81
173.54
186.15
193.89
197.14
196.08
190.79
181.27
167.73
150.76
131.44
111.26
91.89
74.75
60.58
49.26
39.98
31.58
23.17
14.52
6.04
-1.44
-7.24
-11.27
-14.22
-17.35
-22.06
-29.29
-39.02
-50.11
-60.48
-67.64
-69.37
-64.37
-52.57
-35.15
-14.16
7.98
29.03
47.28
61.78
72.38
79.47
83.68
85.66
85.85
84.54
82.00
78.64
75.05
71.81
69.30
67.56
66.30
65.02
63.22
60.43
56.34
50.76
43.61
35.04
25.41
15.33
5.59
-2.85
-8.98
-11.88
-10.84
-5.73
2.87
13.70
25.09
35.51
43.91
49.99
54.05
56.72
58.55
59.74
60.13
59.23
56.44
51.31
43.72
33.98
22.84
11.28
0.33
-9.31
-17.34
-23.78
-28.89
-32.89
-35.87
-37.86
-38.93
-39.36
-39.71
-40.69
-42.93
-46.72
-51.72
-56.99
-61.15
-62.75
-60.66
-54.35
-44.07
-30.67
-15.35
0.63
16.16
30.37
42.53
52.06
58.53
61.75
61.87
59.44
55.28
50.28
45.11
40.19
35.65
31.45
27.62
24.27
21.62
19.82
18.86
18.48
18.20
17.49
15.90
13.16
9.16
3.95
-2.37
-9.64
-17.52
-25.41
-32.40
-37.32
-39.01
-36.59
-29.77
-19.02
-5.46
9.39
23.95
36.93
47.51
55.43
60.80
63.93
65.10
64.43
61.99
57.84
52.28
45.80
39.05
32.65
26.94
21.97
17.48
13.20
8.97
4.80
0.91
-2.53
-5.52
-8.35
-11.46
-15.36
-20.39
-26.64
-33.86
-41.38
-48.21
-53.13
-54.97
-52.88
-46.65
-36.75
-24.18
-10.27
3.72
16.74
28.06
37.19
43.81
47.77
49.04
47.84
44.59
39.89
34.46
28.99
24.06
20.02
16.98
14.79
13.17
11.80
10.42
8.89
7.14
5.12
2.78
0.06
-3.20
-7.15
-11.92
-17.58
-24.04
-30.91
-37.45
-42.57
-44.99
-43.61
-37.94
-28.32
-15.88
-2.20
11.14
22.95
32.62
39.99
45.07
47.91
48.52
46.96
43.52
38.71
33.25
27.83
23.00
19.03
15.94
13.52
11.46
9.49
7.42
5.25
3.05
0.89
-1.29
-3.67
-6.57
-10.27
-15.00
-20.81
-27.63
-35.18
-42.96
-50.10
-55.47
-57.80
-56.08
-49.92
-39.83
-27.08
-13.33
-0.19
11.23
20.43
27.33
32.07
34.74
35.35
33.96
30.85
26.58
21.92
17.63
14.22
11.86
10.35
9.29
8.35
7.30
6.12
4.83
3.41
1.77
-0.20
-2.63
-5.57
-9.07
-13.20
-18.11
-23.97
-30.81
-38.26
-45.49
-51.23
-54.03
-52.73
-46.85
-36.81
-23.81
-9.56
4.26
16.35
26.01
33.03
37.52
39.70
39.75
37.86
34.36
29.74
24.63
19.70
15.48
12.31
10.21
8.98
8.28
7.75
7.03
5.87
4.14
1.83
-0.98
-4.14
-7.50
-10.94
-14.46
-18.21
-22.49
-27.62
-33.77
-40.68
-47.51
-52.90
-55.31
-53.48
-46.92
-36.14
-22.52
-7.86
6.08
18.03
27.39
34.06
38.31
40.47
40.82
39.59
36.98
33.33
29.09
24.80
20.94
17.86
15.63
14.13
13.04
12.06
10.91
9.42
7.53
5.28
2.74
-0.03
-3.03
-6.35
-10.15
-14.63
-20.01
-26.40
-33.68
-41.39
-48.66
-54.27
-56.91
-55.53
-49.70
-39.85
-27.11
-13.10
0.52
12.36
21.53
27.65
30.81
31.40
30.02
27.38
24.11
20.68
17.42
14.50
12.03
10.16
9.01
8.64
8.91
9.51
10.02
10.05
9.37
7.93
5.79
3.06
-0.19
-3.89
-7.92
-12.16
-16.50
-20.97
-25.74
-30.93
-36.46
-41.79
-45.89
-47.48
-45.45
-39.29
-29.35
-16.81
-3.31
9.49
20.32
28.48
33.89
36.79
37.57
36.66
34.42
31.27
27.59
23.88
20.52
17.80
15.87
14.66
13.98
13.51
12.88
11.71
9.82
7.20
4.07
0.76
-2.46
-5.52
-8.58
-11.93
-15.91
-20.67
-26.25
-32.45
-38.96
-45.19
-50.32
-53.32
-53.18
-49.23
-41.40
-30.36
-17.35
-3.85
8.82
19.76
28.53
35.05
39.40
41.67
41.99
40.54
37.72
34.13
30.55
27.71
26.11
25.83
26.53
27.62
28.48
28.75
28.34
27.41
26.21
24.93
23.62
22.26
20.82
19.32
17.80
16.29
14.76
13.11
11.26
9.34
7.80
7.46
9.35
14.49
23.61
36.93
54.08
74.16
95.91
117.91
138.74
157.26
172.83
185.42
195.62
204.50
213.43
223.82
236.70
252.34
269.89
287.26
301.49
309.58
309.48
300.84
285.05
264.62
242.14
219.44
197.34
175.99
155.40
135.85
117.76
101.28
85.95
70.77
54.60
36.59
16.57
-5.09
-27.59
-49.85
-70.49
-87.81
-100.22
-106.83
-108.16
-106.22
-103.92
-103.83
-107.08
-113.12
-120.53
-128.31
-136.72
-147.14
-160.81
-177.50
-195.02
-209.90
-219.02
-220.94
-216.39
-207.62
-197.18
-186.81
-177.06
-167.80
-158.77
-150.19
-142.65
-136.76
-132.57
-129.47
-126.29
-121.84
-115.43
-107.16
-97.89
-88.89
-81.37
-76.04
-72.96
-71.61
-71.03
-70.12
-67.74
-63.02
-55.47
-45.08
-32.43
-18.51
-4.52
8.32
18.94
26.50
30.46
30.56
26.98
20.37
11.86
2.84
-5.33
-11.65
-15.76
-17.90
-18.67
-18.80
-18.83
-19.00
-19.31
-19.67
-20.07
-20.55
-21.23
-22.07
-22.85
-23.17
-22.58
-20.88
-18.18
-15.01
-12.11
-10.18
-9.56
-10.13
-11.25
-11.95
-11.13
-7.80
-1.27
8.75
22.09
38.15
55.97
74.43
92.37
108.74
122.55
132.85
138.64
139.01
133.41
121.92
105.48
85.79
64.98
45.15
27.96
14.51
5.37
0.76
0.66
4.86
12.98
24.49
38.59
54.20
69.61
82.46
89.77
88.58
76.85
54.34
23.07
-13.14
-49.71
-82.62
-109.36
-129.16
-142.58
-150.80
-155.04
-156.31
-155.34
-152.62
-148.34
-142.29
-133.99
-122.82
-108.42
-91.14
-72.08
-53.05
-36.02
-22.62
-13.76
-9.48
-9.11
-11.54
-15.56
-20.04
-24.02
-26.80
-28.03
-27.95
-27.49
-28.17
-31.62
-38.91
-50.06
-63.99
-79.05
-93.79
-107.59
-120.61
-133.42
-146.27
-158.65
-169.21
-176.19
-177.98
-173.66
-163.25
-147.79
-129.13
-109.66
-91.83
-77.59
-68.14
-63.73
-63.90
-67.81
-74.60
-83.47
-93.74
-104.70
-115.46
-124.76
-130.89
-131.67
-124.91
-109.21
-84.86
-54.33
-22.00
7.03
28.52
40.48
43.55
40.43
34.71
29.60
27.04
27.43
29.60
31.27
29.64
22.26
7.95
-12.56
-36.75
-60.91
-81.26
-94.94
-100.48
-97.74
-87.53
-71.19
-50.35
-26.83
-2.40
21.48
43.94
64.68
83.64
100.48
114.20
123.26
126.12
122.14
112.17
98.44
83.81
70.45
58.89
47.94
35.50
19.84
0.63
-20.88
-42.56
-62.33
-78.69
-90.78
-97.97
-99.60
-95.36
-85.86
-73.06
-60.00
-49.76
-44.29
-43.61
-45.92
-48.35
-48.09
-43.26
-33.27
-18.69
-0.86
18.50
37.67
55.16
69.74
80.46
86.65
88.02
84.83
78.05
69.19
60.02
51.98
45.86
41.66
38.88
36.89
35.34
34.19
33.55
33.41
33.46
33.24
32.27
30.35
27.46
23.65
18.85
12.81
5.26
-3.74
-13.48
-22.59
-29.25
-31.67
-28.57
-19.56
-5.28
12.78
32.54
51.77
68.45
81.12
89.04
92.18
91.04
86.44
79.31
70.57
61.13
51.77
43.06
35.29
28.38
21.96
15.59
8.97
1.99
-5.13
-11.94
-17.92
-22.61
-25.78
-27.63
-28.76
-30.05
-32.34
-36.24
-41.88
-48.98
-56.91
-64.84
-71.73
-76.36
-77.42
-73.78
-64.93
-51.27
-34.25
-15.98
1.34
16.08
27.37
35.20
39.98
42.26
42.45
40.79
37.56
33.12
28.06
23.02
18.58
15.10
12.69
11.23
10.47
10.02
9.39
8.01
5.48
1.76
-2.59
-6.41
-8.17
-6.45
-0.43
9.80
23.22
38.19
52.86
65.61
75.31
81.45
84.00
83.30
79.86
74.30
67.28
59.47
51.56
44.15
37.66
32.30
28.10
24.98
22.86
21.61
21.09
20.98
20.82
20.10
18.44
15.73
12.21
8.33
4.53
0.94
-2.72
-7.15
-13.21
-21.55
-32.18
-44.20
-55.79
-64.54
-68.10
-64.79
-54.23
-37.49
-16.80
5.01
25.26
42.02
54.40
62.42
66.73
68.15
67.32
64.75
60.84
56.15
51.40
47.39
44.58
42.96
42.03
41.11
39.74
37.86
35.82
34.09
32.92
32.32
32.06
31.85
31.40
30.43
28.58
25.46
20.85
15.01
8.92
4.15
2.46
5.10
12.27
22.86
34.69
45.13
51.75
53.01
48.47
38.72
25.02
9.04
-7.40
-22.47
-34.42
-41.99
-44.65
-42.85
-37.89
-31.43
-24.95
-19.28
-14.55
-10.52
-6.92
-3.78
-1.29
0.52
1.93
3.47
5.60
8.14
10.17
10.30
7.27
0.58
-9.26
-20.92
-32.74
-43.22
-51.24
-56.05
-57.10
-54.02
-46.78
-35.90
-22.43
-7.80
6.53
19.51
30.61
39.80
47.26
53.15
57.48
60.12
60.96
60.05
57.70
54.41
50.81
47.55
45.15
43.96
44.25
46.06
49.17
52.99
56.61
58.99
59.30
57.11
52.54
46.11
38.48
30.29
21.90
13.29
4.17
-5.95
-17.37
-29.82
-42.22
-52.81
-59.52
-60.80
-56.16
-46.42
-33.42
-19.35
-5.94
5.95
16.37
25.95
35.40
45.03
54.51
62.81
68.45
69.95
66.23
56.94
42.64
24.80
5.54
-12.56
-27.01
-35.94
-38.60
-35.76
-29.64
-23.37
-20.04
-21.82
-29.25
-41.24
-55.54
-69.72
-82.00
-91.78
-99.68
-107.07
-115.41
-125.72
-138.29
-152.63
-167.39
-180.41
-188.81
-189.58
-180.45
-161.06
-133.34
-101.26
-69.48
-41.86
-20.39
-5.11
5.14
11.64
15.19
16.15
14.90
12.30
9.53
7.62
6.95
7.14
7.45
7.27
6.63
6.18
6.84
9.26
13.44
18.68
23.75
27.34
28.48
26.79
22.59
16.69
10.11
3.69
-2.17
-7.65
-13.35
-20.05
-28.30
-38.11
-48.77
-58.80
-66.27
-69.28
-66.48
-57.48
-43.06
-24.94
-5.35
13.63
30.43
44.17
54.57
61.57
65.23
65.65
63.07
58.07
51.59
44.78
38.75
34.25
31.58
30.65
31.11
32.54
34.58
36.88
39.05
40.66
41.30
40.71
38.84
35.90
32.24
28.19
23.97
19.66
15.13
10.11
4.28
-2.59
-10.34
-18.30
-25.17
-29.22
-28.71
-22.51
-10.50
6.30
25.91
46.05
64.66
80.41
92.77
101.82
107.90
111.35
112.36
111.04
107.52
102.11
95.21
87.27
78.66
69.63
60.33
50.86
41.32
31.76
22.18
12.50
2.53
-7.91
-18.88
-30.35
-42.17
-54.18
-66.20
-78.09
-89.78
-101.24
-112.47
-123.37
-133.53
-142.02
-147.41
-148.15
-143.01
-131.67
-114.92
-94.51
-72.50
-50.66
-30.01
-10.69
7.63
25.41
42.80
59.49
74.71
87.33
96.03
99.49
96.66
86.97
70.67
48.85
23.29
-3.85
-30.46
-54.89
-75.96
-92.90
-105.14
-112.20
-113.89
-110.52
-103.19
-93.81
-84.78
-78.34
-75.89
-77.60
-82.37
-88.32
-93.36
-95.72
-94.23
-88.37
-78.14
-63.86
-46.28
-26.51
-6.05
13.40
30.29
43.57
52.82
58.28
60.54
60.21
57.85
53.85
48.61
42.62
36.55
31.18
27.19
24.96
24.46
25.17
26.29
26.95
26.52
24.76
21.85
18.18
14.13
9.93
5.51
0.62
-5.06
-11.82
-19.76
-28.52
-37.21
-44.32
-47.96
-46.47
-38.90
-25.44
-7.39
13.23
34.21
53.74
70.51
83.81
93.37
99.23
101.67
101.18
98.40
93.98
88.47
82.28
75.70
68.97
62.35
56.16
50.72
46.38
43.36
41.65
40.96
40.69
40.13
38.59
35.74
31.67
26.91
22.19
18.09
14.69
11.39
7.12
0.69
-8.54
-20.14
-32.25
-41.91
-45.69
-40.82
-26.26
-3.25
24.84
53.41
77.91
95.03
103.29
102.97
95.45
82.49
65.63
46.12
25.15
4.20
-14.86
-29.94
-39.34
-42.40
-39.87
-33.85
-27.13
-22.29
-20.85
-22.93
-27.63
-33.83
-41.01
-49.53
-60.31
-74.14
-90.99
-109.78
-128.67
-145.62
-158.92
-167.54
-171.23
-170.55
-166.77
-161.56
-156.46
-152.16
-148.03
-142.23
-132.44
-116.95
-95.53
-69.53
-41.32
-13.29
12.86
36.36
56.95
74.40
88.20
97.79
102.91
104.03
102.36
99.47
96.78
95.14
94.67
94.96
95.37
95.44
95.16
94.91
95.41
97.32
100.96
105.93
110.99
114.18
113.27
106.37
92.68
72.79
48.58
22.78
-1.93
-23.51
-40.94
-54.18
-63.88
-70.96
-76.35
-80.71
-84.29
-86.82
-87.48
-85.10
-78.48
-66.93
-50.63
-30.72
-9.05
12.40
32.06
49.10
63.38
75.16
84.75
92.25
97.60
100.77
102.05
102.16
102.19
103.29
106.30
111.47
118.27
125.49
131.40
134.23
132.50
125.46
113.18
96.60
77.26
56.91
37.18
19.29
3.92
-8.78
-19.14
-27.86
-35.78
-43.76
-52.41
-62.06
-72.74
-84.44
-97.27
-111.37
-126.72
-142.66
-157.58
-169.03
-174.31
-171.38
-159.65
-140.30
-115.90
-89.64
-64.44
-42.46
-24.89
-12.12
-4.04
-0.23
-0.06
-2.68
-7.19
-12.75
-18.66
-24.37
-29.37
-33.07
-34.86
-34.30
-31.27
-26.16
-19.71
-12.81
-6.28
-0.67
3.73
6.86
8.77
9.56
9.41
8.54
7.24
5.78
4.41
3.28
2.50
2.06
1.84
1.58
0.87
-0.75
-3.60
-7.49
-11.63
-14.56
-14.60
-10.30
-0.97
13.16
31.03
51.14
71.92
91.81
109.30
122.85
131.04
132.91
128.46
118.73
105.59
91.19
77.27
64.89
54.41
45.90
39.47
35.31
33.54
33.87
35.48
37.18
37.78
36.60
33.57
29.15
23.96
18.39
12.49
6.05
-1.21
-9.39
-18.39
-28.06
-38.28
-49.10
-60.54
-72.42
-84.10
-94.54
-102.50
-106.95
-107.44
-104.26
-98.33
-90.96
-83.46
-76.92
-72.12
-69.48
-69.13
-70.89
-74.31
-78.72
-83.43
-87.89
-91.87
-95.54
-99.38
-103.95
-109.58
-116.17
-123.01
-128.82
-131.96
-130.90
-124.69
-113.50
-98.78
-82.93
-68.67
-58.08
-52.01
-49.90
-50.21
-51.26
-51.91
-51.94
-51.89
-52.59
-54.64
-58.14
-62.69
-67.51
-71.54
-73.59
-72.41
-66.91
-56.51
-41.32
-22.28
-1.02
20.52
40.51
57.65
71.19
80.99
87.22
90.30
90.76
89.19
86.29
82.74
79.19
76.18
74.00
72.82
72.69
73.68
75.87
79.21
83.47
88.13
92.54
96.04
98.21
98.91
98.33
96.96
95.37
94.14
93.65
93.93
94.51
94.46
92.56
87.83
79.95
69.50
57.88
46.81
37.71
31.39
27.92
26.83
27.42
28.98
30.89
32.64
33.75
33.81
32.54
29.76
25.48
19.77
12.80
4.89
-3.41
-11.25
-17.67
-21.65
-22.51
-20.00
-14.44
-6.61
2.51
11.93
20.85
28.69
35.11
39.88
42.98
44.52
44.75
43.85
41.88
38.67
33.97
27.83
20.99
15.03
12.08
14.07
21.90
34.94
51.11
67.53
81.50
91.13
95.71
95.48
91.37
84.67
76.85
69.28
62.99
58.30
54.59
50.48
44.33
35.04
22.57
8.13
-6.29
-18.59
-27.24
-31.68
-32.17
-29.39
-23.90
-15.83
-5.03
8.55
24.36
41.02
56.56
68.98
76.82
79.38
76.59
68.70
56.03
39.09
19.08
-1.75
-20.15
-32.82
-37.53
-34.08
-24.34
-11.60
0.59
9.34
12.63
9.32
-1.10
-18.53
-42.05
-69.69
-98.55
-125.45
-147.84
-164.73
-176.86
-186.09
-194.39
-202.72
-210.77
-217.13
-220.19
-218.87
-213.20
-204.12
-192.95
-180.74
-167.96
-154.57
-140.61
-126.70
-114.22
-105.03
-100.69
-101.62
-106.39
-111.69
-113.16
-106.91
-91.04
-66.54
-36.92
-6.71
20.29
42.25
59.36
72.91
84.01
92.86
98.83
101.27
100.33
97.35
94.32
93.05
94.40
98.01
102.72
107.13
110.19
111.38
110.72
108.46
104.95
100.48
95.23
89.27
82.56
74.99
66.41
56.70
45.89
34.10
21.74
9.50
-1.51
-9.97
-14.45
-13.95
-8.25
1.90
14.86
28.52
40.86
50.41
56.48
59.10
58.84
56.44
52.70
48.25
43.53
38.73
33.88
28.89
23.71
18.46
13.47
9.13
5.76
3.35
1.62
0.10
-1.60
-3.64
-5.95
-8.34
-10.66
-12.94
-15.33
-18.02
-21.18
-24.96
-29.50
-34.89
-41.06
-47.60
-53.67
-58.16
-59.92
-58.12
-52.53
-43.66
-32.59
-20.86
-10.01
-1.34
4.40
7.19
7.62
6.64
5.11
3.56
1.99
0.07
-2.55
-5.97
-9.91
-13.86
-17.29
-19.85
-21.47
-22.32
-22.71
-23.00
-23.61
-24.95
-27.32
-30.84
-35.32
-40.37
-45.51
-50.42
-55.11
-59.94
-65.46
-72.19
-80.22
-88.97
-97.21
-103.31
-105.61
-103.01
-95.34
-83.36
-68.60
-52.95
-38.17
-25.56
-15.93
-9.60
-6.58
-6.66
-9.41
-14.19
-20.21
-26.59
-32.50
-37.31
-40.65
-42.48
-43.11
-43.09
-43.11
-43.82
-45.64
-48.65
-52.56
-56.74
-60.46
-63.00
-63.92
-63.11
-60.88
-57.91
-55.12
-53.45
-53.70
-56.19
-60.49
-65.43
-69.23
-69.95
-66.06
-56.90
-42.92
-25.41
-6.10
13.38
31.78
48.31
62.44
73.77
81.89
86.59
87.96
86.47
82.90
78.17
73.13
68.52
64.78
62.16
60.62
59.94
59.70
59.39
58.49
56.60
53.47
49.04
43.43
36.90
29.74
22.18
14.34
6.22
-2.29
-11.37
-21.12
-31.53
-42.29
-52.63
-61.28
-66.58
-66.89
-61.06
-48.89
-31.17
-9.35
14.94
40.27
65.56
89.89
112.18
131.22
145.93
155.71
160.85
162.49
162.20
161.53
161.39
161.93
162.71
163.03
162.42
160.85
158.81
157.00
156.16
156.70
158.57
161.28
163.87
165.14
163.79
158.66
149.00
134.65
116.11
94.36
70.66
46.24
22.16
-0.73
-21.77
-40.52
-56.66
-70.18
-81.30
-90.51
-98.38
-105.28
-111.30
-116.15
-119.29
-119.87
-116.84
-109.10
-95.86
-76.95
-53.29
-26.68
0.44
25.66
47.05
63.36
73.89
78.31
76.51
68.66
55.38
37.81
17.44
-4.12
-25.48
-45.58
-63.55
-78.73
-90.60
-98.83
-103.41
-104.73
-103.62
-101.13
-98.33
-96.08
-94.89
-95.14
-97.03
-100.59
-105.58
-111.18
-116.01
-118.63
-118.18
-115.10
-111.23
-108.99
-110.44
-116.16
-125.20
-135.60
-145.52
-153.86
-160.37
-165.05
-167.54
-166.95
-162.30
-153.21
-140.44
-125.68
-110.97
-97.69
-86.20
-75.84
-65.64
-54.98
-44.08
-33.89
-25.74
-20.72
-19.41
-21.68
-26.78
-33.48
-40.16
-45.03
-46.41
-43.05
-34.42
-20.79
-3.15
17.02
38.12
58.61
77.09
92.44
103.82
110.83
113.52
112.50
108.79
103.57
97.92
92.62
88.06
84.33
81.35
79.11
77.66
77.12
77.47
78.48
79.67
80.51
80.54
79.55
77.65
75.14
72.50
70.18
68.53
67.54
66.73
65.07
61.32
54.72
45.50
35.21
26.39
21.70
22.90
30.22
42.33
56.95
71.76
85.06
96.09
104.76
111.35
116.15
119.34
120.99
121.15
119.86
117.20
113.30
108.38
102.85
97.24
92.06
87.73
84.36
81.65
78.82
74.87
68.72
59.56
47.18
32.18
15.92
0.19
-13.31
-23.57
-30.55
-35.14
-38.87
-43.35
-49.95
-59.55
-72.41
-87.99
-104.82
-120.46
-131.91
-136.41
-132.31
-119.71
-100.57
-77.94
-55.01
-34.22
-16.86
-3.30
6.48
12.55
14.89
13.55
8.92
1.76
-6.96
-16.26
-25.42
-33.92
-41.39
-47.44
-51.65
-53.64
-53.19
-50.41
-45.69
-39.65
-33.00
-26.35
-20.15
-14.72
-10.30
-7.16
-5.60
-5.79
-7.73
-11.20
-15.85
-21.44
-27.78
-34.62
-41.32
-46.65
-48.90
-46.38
-38.16
-24.59
-7.34
11.14
28.43
42.98
54.28
62.67
68.78
72.91
74.89
74.20
70.47
63.79
54.84
44.71
34.43
24.81
16.19
8.62
2.09
-3.36
-7.61
-10.64
-12.58
-13.84
-14.96
-16.45
-18.57
-21.32
-24.54
-28.10
-32.08
-36.79
-42.59
-49.59
-57.31
-64.58
-69.71
-70.90
-66.79
-57.00
-42.19
-24.01
-4.61
13.87
29.82
42.43
51.78
58.56
63.67
67.77
71.01
73.06
73.46
71.93
68.69
64.42
59.91
55.76
52.21
49.15
46.34
43.64
41.06
38.61
36.16
33.40
29.87
25.28
19.64
13.31
6.81
0.57
-5.29
-11.09
-17.47
-25.04
-33.95
-43.68
-52.95
-60.06
-63.37
-61.85
-55.32
-44.52
-30.88
-16.08
-1.74
10.89
21.07
28.58
33.62
36.70
38.35
38.96
38.72
37.62
35.71
33.29
30.98
29.63
29.99
32.41
36.62
41.83
46.99
51.17
53.86
55.10
55.34
55.19
55.15
55.37
55.62
55.32
53.67
49.94
43.72
35.23
25.42
15.90
8.49
4.80
5.67
10.91
19.29
29.04
38.34
45.98
51.71
56.09
59.88
63.32
65.56
64.76
58.73
46.01
26.69
2.53
-23.48
-48.04
-68.39
-82.75
-90.45
-91.93
-88.44
-81.81
-74.16
-67.47
-63.15
-61.74
-62.87
-65.41
-67.95
-69.10
-67.95
-64.40
-59.04
-52.96
-47.38
-43.11
-40.23
-38.08
-35.57
-31.63
-25.64
-17.60
-8.19
1.48
10.19
16.91
20.98
22.25
20.88
17.35
12.30
6.30
-0.16
-6.73
-13.08
-18.96
-24.15
-28.68
-33.00
-37.88
-44.14
-52.10
-61.23
-70.20
-77.58
-82.62
-85.82
-88.83
-93.69
-101.96
-114.10
-129.59
-147.41
-166.57
-186.06
-204.68
-220.62
-231.60
-235.59
-231.70
-220.80
-205.43
-188.72
-173.14
-159.57
-147.12
-133.91
-118.53
-101.09
-83.26
-67.77
-56.99
-51.91
-51.80
-54.64
-57.77
-58.63
-55.35
-46.91
-33.34
-15.85
3.32
21.28
35.29
43.60
46.02
43.99
39.96
36.35
34.79
35.56
37.78
39.80
40.01
37.49
32.49
26.38
21.34
19.82
23.76
34.09
50.50
71.41
94.20
115.89
133.79
146.10
152.29
153.00
149.53
143.31
135.39
126.33
116.33
105.66
94.92
85.07
77.07
71.63
68.97
68.79
70.35
72.75
74.90
75.55
73.39
67.35
56.97
42.76
26.21
9.52
-5.08
-16.07
-23.03
-26.74
-28.76
-30.89
-34.59
-40.46
-48.01
-55.71
-61.45
-63.14
-59.41
-50.17
-36.56
-20.50
-4.07
11.14
24.31
35.21
43.97
50.78
55.81
59.33
61.75
63.58
65.34
67.31
69.53
71.75
73.55
74.50
74.21
72.42
69.07
64.26
58.29
51.55
44.43
37.20
30.03
23.08
16.60
11.03
6.87
4.43
3.62
3.77
3.74
2.21
-1.85
-8.77
-17.91
-27.78
-36.34
-41.62
-42.23
-37.81
-29.01
-17.26
-4.29
8.34
19.54
28.79
35.97
41.19
44.53
45.97
45.41
42.86
38.60
33.26
27.78
23.22
20.46
20.07
22.11
26.16
31.45
37.07
42.21
46.33
49.22
50.92
51.54
51.12
49.70
47.32
44.38
41.56
39.81
40.10
42.95
48.16
54.75
61.14
65.60
66.74
63.86
57.07
47.16
35.30
22.62
9.96
-2.15
-13.45
-23.81
-33.10
-41.19
-47.96
-53.38
-57.45
-60.17
-61.44
-61.12
-59.05
-55.17
-49.54
-42.42
-34.26
-25.61
-17.12
-9.37
-2.77
2.54
6.64
9.70
11.78
12.76
12.27
10.02
6.08
1.10
-3.60
-6.39
-5.77
-0.93
7.97
19.86
33.04
45.78
56.77
65.40
71.66
75.90
78.42
79.21
77.91
74.08
67.51
58.48
47.87
36.88
26.69
18.01
10.92
5.02
-0.28
-5.25
-9.71
-13.08
-14.82
-14.76
-13.29
-11.19
-9.35
-8.41
-8.70
-10.32
-13.39
-18.14
-24.78
-33.26
-43.05
-53.24
-63.04
-72.09
-80.60
-88.71
-95.69
-99.42
-96.75
-84.77
-62.36
-31.18
4.77
40.63
72.49
98.56
118.96
134.55
145.78
152.27
153.20
148.33
138.54
125.71
111.98
98.82
86.53
74.30
60.77
44.79
26.08
5.46
-15.40
-34.55
-50.59
-63.14
-72.85
-80.82
-87.85
-93.86
-98.10
-99.72
-98.46
-94.94
-90.29
-85.49
-81.00
-76.86
-73.24
-70.92
-71.38
-76.19
-86.29
-101.40
-119.91
-139.23
-156.29
-168.21
-172.71
-168.42
-155.13
-133.74
-106.14
-74.85
-42.61
-11.99
14.76
35.78
49.68
55.70
54.02
45.88
33.45
19.38
6.25
-3.91
-9.90
-11.30
-8.43
-2.22
5.87
14.06
20.48
23.53
22.37
17.05
8.46
-2.01
-13.08
-23.88
-34.17
-44.25
-54.60
-65.64
-77.44
-89.62
-101.43
-112.02
-120.72
-127.19
-131.57
-134.24
-135.66
-136.17
-135.79
-134.30
-131.21
-125.95
-117.95
-106.86
-92.65
-75.72
-56.86
-37.08
-17.48
1.02
17.76
32.42
44.97
55.58
64.46
71.81
77.79
82.54
86.25
89.18
91.60
93.69
95.40
96.49
96.56
95.33
92.75
89.12
84.95
80.80
77.07
73.97
71.47
69.45
67.69
65.89
63.61
60.43
56.00
50.25
43.50
36.25
29.06
22.23
15.71
9.15
2.08
-5.77
-14.26
-22.75
-30.19
-35.30
-36.95
-34.42
-27.71
-17.51
-5.06
8.19
20.98
32.45
42.14
49.97
56.07
60.63
63.88
66.06
67.42
68.19
68.53
68.61
68.57
68.65
69.13
70.31
72.40
75.49
79.41
83.80
88.09
91.66
93.96
94.74
94.08
92.29
89.78
86.61
82.44
76.46
67.71
55.47
39.69
21.10
1.05
-18.80
-36.81
-51.59
-62.21
-68.32
-70.21
-68.88
-65.75
-62.29
-59.54
-57.84
-56.75
-55.30
-52.29
-46.65
-37.70
-25.35
-10.44
5.37
19.77
30.42
35.72
35.30
30.13
22.17
13.64
6.38
1.46
-0.89
-1.17
-0.26
0.77
0.93
-0.56
-4.05
-9.37
-15.79
-22.05
-26.81
-29.02
-28.52
-26.23
-23.88
-23.36
-25.87
-31.46
-39.12
-47.41
-55.13
-61.69
-67.09
-71.49
-74.94
-77.37
-78.78
-79.43
-79.80
-80.23
-80.49
-79.62
-76.11
-68.47
-55.91
-38.77
-18.49
2.78
22.83
39.84
52.72
60.99
64.55
63.49
58.01
48.48
35.63
20.59
4.88
-9.91
-22.40
-31.63
-37.28
-39.57
-39.15
-36.83
-33.43
-29.64
-25.96
-22.72
-20.12
-18.29
-17.30
-17.15
-17.74
-18.92
-20.49
-22.27
-24.14
-26.08
-28.14
-30.44
-33.11
-36.27
-40.03
-44.50
-49.71
-55.50
-61.33
-66.24
-68.94
-68.11
-62.86
-53.10
-39.60
-23.83
-7.53
7.77
21.04
31.79
40.01
45.90
49.73
51.73
52.10
51.02
48.69
45.35
41.28
36.77
32.16
27.79
23.97
20.90
18.64
17.10
16.06
15.20
14.27
13.04
11.44
9.52
7.30
4.69
1.47
-2.68
-7.99
-14.47
-21.85
-29.69
-37.57
-45.23
-52.60
-59.84
-67.13
-74.67
-82.49
-90.38
-97.84
-103.94
-107.44
-107.08
-101.95
-91.94
-77.81
-61.01
-43.22
-25.83
-9.68
4.94
18.08
29.83
40.14
48.87
55.83
61.02
64.64
67.25
69.67
72.90
77.91
85.35
95.26
106.96
119.19
130.49
139.65
146.05
149.73
151.12
150.74
148.99
145.98
141.61
135.63
127.71
117.54
104.89
89.76
72.43
53.42
33.10
11.38
-12.44
-39.43
-70.21
-104.05
-138.36
-168.92
-191.03
-200.98
-197.36
-181.36
-156.19
-125.80
-93.58
-61.83
-31.75
-4.17
20.04
39.85
54.51
64.04
69.43
72.33
74.46
76.97
80.19
83.85
87.37
90.27
92.25
93.17
92.98
91.71
89.62
87.23
85.29
84.54
85.50
88.15
91.78
94.83
94.92
89.14
74.64
49.67
14.42
-28.52
-74.64
-118.78
-156.76
-186.76
-209.58
-227.88
-244.70
-261.90
-279.28
-294.72
-305.06
-307.42
-300.14
-283.21
-257.85
-225.84
-188.91
-148.54
-106.24
-63.94
-24.15
10.46
37.72
56.79
68.39
74.56
77.82
80.32
83.23
86.69
90.19
92.99
94.42
93.73
89.81
81.08
65.96
43.82
16.06
-13.52
-39.52
-56.73
-62.04
-55.63
-40.66
-21.79
-3.25
12.33
24.15
32.46
37.77
40.40
40.72
39.52
38.26
38.78
42.65
50.55
62.00
75.46
88.87
100.39
108.93
114.40
117.44
119.02
119.84
120.09
119.57
118.00
115.33
111.94
108.53
105.75
103.95
103.04
102.62
102.15
101.13
99.21
96.17
91.85
86.12
78.94
70.60
61.88
54.03
48.44
46.04
46.79
49.45
51.89
51.76
47.29
37.76
23.61
6.18
-12.70
-31.08
-47.23
-59.75
-67.75
-70.97
-69.81
-65.25
-58.55
-50.99
-43.54
-36.78
-30.81
