1643386743.00
64.000000
-0.00
-0.00
-0.00
-0.00
-0.00
-0.00
-0.00
-0.00
-0.00
-0.00
0.00
0.01
0.01
-0.00
-0.03
-0.05
-0.05
0.00
0.13
0.36
0.66
1.01
1.38
1.72
2.05
2.39
2.78
3.25
3.84
4.49
5.13
5.69
6.12
6.45
6.74
7.12
7.67
8.51
9.54
10.63
11.61
12.42
13.09
13.81
14.86
16.40
18.68
21.48
24.44
27.20
29.55
31.56
33.65
36.35
40.11
45.33
51.58
58.15
64.27
69.44
73.77
77.97
83.02
89.75
98.78
109.44
120.57
130.84
139.42
146.37
152.71
160.35
168.51
179.67
194.18
211.52
229.77
245.52
254.47
252.50
237.02
207.92
167.95
120.86
70.45
19.16
-32.38
-84.83
-138.88
-193.93
-247.49
-295.19
-332.56
-356.12
-364.66
-359.60
-344.39
-323.20
-299.55
-275.64
-252.22
-229.55
-207.98
-188.21
-170.96
-156.42
-143.96
-132.32
-120.26
-107.06
-92.99
-79.05
-66.47
-56.12
-48.11
-41.83
-36.24
-30.43
-23.91
-16.91
-10.08
-4.18
0.30
3.36
5.43
7.16
9.12
11.56
14.35
17.07
19.24
20.54
20.96
20.79
20.47
20.37
20.66
21.25
21.84
22.08
21.77
20.89
19.64
18.32
17.19
16.40
15.93
15.66
15.46
15.23
14.93
14.61
14.27
13.91
13.53
13.11
12.68
12.26
11.87
11.49
11.11
10.69
10.21
9.71
9.25
8.90
8.72
8.73
8.84
8.92
8.81
8.41
7.74
6.93
6.18
5.65
5.42
5.46
5.68
5.95
6.20
6.34
6.34
6.18
5.91
5.59
5.35
5.26
5.32
5.43
5.44
5.24
4.84
4.34
3.93
3.74
3.83
4.13
4.51
4.83
4.97
4.89
4.59
4.15
3.67
3.29
3.08
3.04
3.05
2.99
2.74
2.30
1.77
1.31
1.01
0.87
0.80
0.72
0.58
0.42
0.29
0.19
0.06
-0.17
-0.55
-1.02
-1.47
-1.80
-1.99
-2.14
-2.40
-2.91
-3.66
-4.53
-5.30
-5.83
-6.07
-6.17
-6.34
-6.75
-7.51
-8.54
-9.63
-10.55
-11.12
-11.32
-11.31
-11.38
-11.83
-12.81
-14.25
-15.87
-17.28
-18.22
-18.62
-18.64
-18.59
-18.77
-19.43
-20.72
-22.62
-24.83
-26.64
-27.01
-24.84
-19.40
-10.81
-0.12
10.96
20.71
27.93
32.34
34.36
34.81
34.38
33.41
32.01
30.21
28.17
26.21
24.66
23.65
23.06
22.58
21.81
20.52
18.75
16.78
15.02
13.73
12.94
12.45
11.90
11.02
9.75
8.27
6.87
5.81
5.21
4.97
4.88
4.74
4.46
4.07
3.71
3.49
3.45
3.54
3.68
3.75
3.70
3.48
3.11
2.63
2.11
1.65
1.35
1.29
1.47
1.84
2.32
2.83
3.32
3.78
4.19
4.53
4.75
4.86
4.89
4.93
5.09
5.52
6.29
7.41
8.73
10.05
11.12
11.77
12.03
12.12
12.42
13.21
14.63
16.54
18.61
20.47
21.85
22.70
23.14
23.40
23.67
24.13
24.82
25.72
26.57
26.85
25.77
22.43
16.22
7.22
-3.61
-14.63
-24.06
-30.61
-33.91
-34.52
-33.46
-31.74
-29.91
-28.11
-26.25
-24.26
-22.30
-20.60
-19.34
-18.47
-17.82
-17.14
-16.26
-15.19
-14.03
-12.96
-12.08
-11.40
-10.83
-10.27
-9.67
-9.00
-8.34
-7.75
-7.24
-6.79
-6.35
-5.93
-5.65
-5.67
-6.10
-6.94
-7.96
-8.81
-9.15
-8.83
-8.11
-7.48
-7.57
-8.74
-10.93
-13.57
-15.88
-17.21
-17.32
-16.57
-15.69
-15.43
-16.29
-18.44
-21.77
-25.83
-29.73
-32.07
-31.16
-25.61
-15.02
-0.52
15.44
29.94
40.68
46.76
48.79
48.25
46.61
44.71
42.70
40.48
38.10
35.98
34.67
34.48
35.12
35.78
35.34
32.75
27.50
19.83
10.63
1.18
-7.31
-14.08
-19.02
-22.45
-24.88
-26.62
-27.69
-27.92
-27.23
-25.84
-24.30
-23.25
-23.20
-24.35
-26.54
-29.25
-31.65
-32.65
-31.14
-26.37
-18.38
-8.20
2.39
11.46
17.71
20.80
21.37
20.41
18.77
16.79
14.43
11.67
8.78
6.31
4.80
4.41
4.84
5.45
5.61
4.98
3.64
1.97
0.45
-0.54
-0.87
-0.68
-0.33
-0.21
-0.62
-1.66
-3.16
-4.79
-6.16
-7.01
-7.33
-7.36
-7.39
-7.70
-8.34
-9.23
-10.18
-10.99
-11.54
-11.71
-11.43
-10.68
-9.51
-8.12
-6.75
-5.62
-4.77
-4.02
-2.99
-1.32
1.18
4.39
7.94
11.31
14.08
16.00
17.05
17.38
17.18
16.61
15.75
14.67
13.47
12.28
11.27
10.57
10.20
10.06
9.97
9.71
9.16
8.29
7.15
5.88
4.61
3.44
2.45
1.65
1.05
0.61
0.27
-0.02
-0.30
-0.60
-0.88
-1.12
-1.26
-1.31
-1.31
-1.29
-1.29
-1.29
-1.27
-1.17
-1.01
-0.85
-0.77
-0.83
-1.02
-1.26
-1.45
-1.53
-1.48
-1.35
-1.17
-0.97
-0.73
-0.43
-0.03
0.44
0.93
1.33
1.55
1.56
1.40
1.13
0.83
0.54
0.26
-0.00
-0.24
-0.41
-0.48
-0.41
-0.24
-0.06
0.06
0.06
-0.05
-0.20
-0.33
-0.37
-0.31
-0.16
0.03
0.21
0.32
0.33
0.24
0.05
-0.20
-0.49
-0.77
-0.98
-1.10
-1.08
-0.96
-0.77
-0.60
-0.47
-0.39
-0.30
-0.14
0.13
0.45
0.74
0.92
0.94
0.83
0.64
0.44
0.25
0.07
-0.09
-0.21
-0.25
-0.15
0.04
0.25
0.35
0.26
-0.01
-0.34
-0.58
-0.64
-0.53
-0.36
-0.28
-0.35
-0.58
-0.87
-1.11
-1.23
-1.25
-1.18
-1.09
-0.98
-0.84
-0.72
-0.65
-0.70
-0.93
-1.34
-1.87
-2.37
-2.71
-2.76
-2.48
-1.91
-1.18
-0.46
0.09
0.42
0.54
0.51
0.44
0.43
0.52
0.78
1.17
1.65
2.12
2.44
2.54
2.40
2.11
1.76
1.46
1.23
1.08
0.96
0.83
0.69
0.56
0.47
0.45
0.50
0.63
0.83
1.07
1.27
1.38
1.34
1.13
0.80
0.39
-0.00
-0.31
-0.45
-0.37
-0.09
0.32
0.75
1.06
1.16
1.05
0.78
0.48
0.23
0.07
-0.00
-0.03
0.00
0.12
0.34
0.64
0.94
1.12
1.08
0.85
0.54
0.28
0.16
0.18
0.26
0.29
0.20
-0.02
-0.33
-0.69
-1.06
-1.37
-1.55
-1.52
-1.22
-0.67
0.00
0.62
1.02
1.09
0.88
0.48
0.01
-0.43
-0.79
-1.05
-1.19
-1.19
-1.01
-0.67
-0.21
0.22
0.51
0.59
0.47
0.26
0.10
0.12
0.31
0.59
0.83
0.93
0.87
0.76
0.75
0.93
1.33
1.85
2.31
2.58
2.59
2.35
2.01
1.69
1.53
1.58
1.81
2.17
2.59
3.04
3.54
4.11
4.71
5.28
5.70
5.94
6.00
6.00
6.01
6.10
6.20
6.22
6.04
5.55
4.71
3.46
1.83
-0.13
-2.30
-4.54
-6.72
-8.74
-10.58
-12.18
-13.51
-14.47
-15.04
-15.28
-15.34
-15.40
-15.48
-15.43
-14.95
-13.80
-11.89
-9.43
-6.78
-4.35
-2.37
-0.84
0.41
1.60
2.83
4.04
5.05
5.67
5.81
5.54
5.05
4.56
4.23
4.09
4.08
4.08
4.04
3.98
3.95
4.00
4.11
4.20
4.19
4.01
3.69
3.30
2.94
2.69
2.53
2.43
2.32
2.16
1.96
1.74
1.58
1.57
1.75
2.14
2.70
3.33
3.88
4.28
4.51
4.67
4.93
5.41
6.13
6.95
7.66
8.13
8.38
8.63
9.20
10.27
11.81
13.57
15.17
16.31
16.91
17.11
17.24
17.68
18.74
20.63
23.36
26.67
29.93
32.16
32.24
29.29
23.09
14.32
4.39
-5.00
-12.52
-17.57
-20.34
-21.53
-21.91
-21.96
-21.83
-21.47
-20.87
-20.15
-19.50
-19.04
-18.74
-18.44
-17.88
-16.92
-15.56
-13.97
-12.39
-11.05
-10.06
-9.38
-8.84
-8.24
-7.46
-6.57
-5.73
-5.14
-4.90
-4.93
-4.99
-4.85
-4.35
-3.56
-2.69
-2.00
-1.67
-1.69
-1.94
-2.22
-2.37
-2.35
-2.23
-2.09
-2.02
-2.04
-2.10
-2.11
-2.03
-1.88
-1.72
-1.63
-1.63
-1.71
-1.75
-1.65
-1.35
-0.87
-0.31
0.16
0.38
0.31
0.02
-0.31
-0.52
-0.52
-0.37
-0.20
-0.16
-0.27
-0.43
-0.50
-0.40
-0.12
0.21
0.50
0.68
0.75
0.77
0.75
0.68
0.50
0.22
-0.10
-0.40
-0.59
-0.68
-0.69
-0.67
-0.62
-0.55
-0.48
-0.45
-0.52
-0.72
-1.00
-1.27
-1.42
-1.41
-1.30
-1.20
-1.17
-1.20
-1.22
-1.12
-0.85
-0.46
-0.06
0.24
0.38
0.37
0.28
0.14
-0.02
-0.19
-0.35
-0.49
-0.53
-0.45
-0.23
0.08
0.41
0.67
0.77
0.72
0.54
0.32
0.13
-0.01
-0.10
-0.16
-0.22
-0.29
-0.35
-0.40
-0.44
-0.49
-0.55
-0.58
-0.55
-0.45
-0.30
-0.17
-0.13
-0.20
-0.32
-0.41
-0.41
-0.31
-0.14
0.04
0.16
0.17
0.08
-0.09
-0.28
-0.43
-0.47
-0.38
-0.21
-0.03
0.05
-0.01
-0.16
-0.31
-0.36
-0.27
-0.07
0.16
0.33
0.41
0.42
0.43
0.48
0.58
0.68
0.71
0.66
0.55
0.46
0.44
0.50
0.57
0.58
0.48
0.31
0.16
0.13
0.23
0.37
0.43
0.31
-0.00
-0.39
-0.72
-0.90
-0.92
-0.86
-0.82
-0.87
-0.96
-1.01
-0.91
-0.62
-0.19
0.24
0.54
0.60
0.41
0.02
-0.44
-0.81
-0.99
-0.94
-0.72
-0.41
-0.14
0.01
0.00
-0.09
-0.16
-0.11
0.08
0.36
0.60
0.71
0.64
0.44
0.22
0.06
0.01
0.06
0.13
0.17
0.14
0.09
0.02
-0.03
-0.08
-0.13
-0.19
-0.28
-0.35
-0.38
-0.34
-0.23
-0.09
0.01
0.02
-0.06
-0.18
-0.24
-0.18
0.02
0.30
0.52
0.61
0.55
0.41
0.28
0.25
0.28
0.29
0.17
-0.10
-0.46
-0.78
-0.94
-0.92
-0.78
-0.62
-0.53
-0.49
-0.45
-0.36
-0.20
-0.03
0.07
0.08
0.03
-0.03
-0.04
0.00
0.03
0.00
-0.12
-0.32
-0.57
-0.88
-1.29
-1.87
-2.61
-3.41
-4.08
-4.43
-4.41
-4.14
-3.86
-3.81
-4.11
-4.71
-5.44
-6.08
-6.47
-6.61
-6.66
-6.84
-7.35
-8.23
-9.32
-10.34
-10.97
-11.08
-10.80
-10.47
-10.40
-10.77
-11.55
-12.63
-13.99
-15.62
-17.19
-17.70
-15.57
-9.15
2.39
18.34
36.52
54.11
68.77
79.29
85.47
87.31
84.40
76.00
61.81
43.00
22.35
3.55
-10.36
-18.14
-20.74
-20.38
-19.35
-18.90
-19.04
-19.06
-18.36
-16.91
-15.26
-14.07
-13.69
-13.98
-14.40
-14.31
-13.44
-11.92
-10.21
-8.85
-8.18
-8.18
-8.51
-8.72
-8.45
-7.62
-6.41
-5.17
-4.21
-3.70
-3.64
-3.87
-4.18
-4.40
-4.45
-4.33
-4.09
-3.80
-3.50
-3.21
-2.91
-2.58
-2.24
-1.88
-1.53
-1.21
-0.94
-0.74
-0.66
-0.71
-0.89
-1.14
-1.38
-1.54
-1.59
-1.58
-1.59
-1.66
-1.80
-1.97
-2.15
-2.34
-2.65
-3.17
-3.94
-4.86
-5.71
-6.27
-6.41
-6.21
-5.97
-6.07
-6.81
-8.27
-10.24
-12.29
-14.00
-15.09
-15.57
-15.76
-16.10
-16.98
-18.56
-20.65
-22.85
-24.73
-26.01
-26.74
-27.23
-27.91
-29.10
-30.91
-33.27
-35.97
-38.51
-40.01
-39.19
-34.74
-25.88
-12.98
2.25
17.22
29.43
37.36
40.94
41.27
39.87
37.90
35.80
33.52
30.98
28.43
26.39
25.32
25.25
25.70
25.93
25.30
23.60
21.16
18.65
16.72
15.72
15.56
15.80
15.92
15.53
14.55
13.18
11.78
10.66
10.02
9.87
10.03
10.30
10.42
10.27
9.88
9.35
8.92
8.77
9.00
9.55
10.27
11.01
11.68
12.29
12.91
13.57
14.20
14.69
14.87
14.70
14.24
13.69
13.28
13.18
13.40
13.81
14.19
14.31
14.01
13.31
12.36
11.41
10.74
10.54
10.81
11.32
11.62
11.15
9.42
6.22
1.77
-3.28
-8.10
-11.88
-14.18
-15.01
-14.75
-13.91
-12.94
-12.08
-11.40
-10.95
-10.81
-11.07
-11.77
-12.78
-13.83
-14.60
-14.94
-14.86
-14.54
-14.19
-13.93
-13.72
-13.45
-13.01
-12.40
-11.67
-10.92
-10.19
-9.52
-8.90
-8.35
-7.92
-7.61
-7.39
-7.18
-6.88
-6.47
-6.01
-5.62
-5.41
-5.41
-5.56
-5.77
-5.92
-5.95
-5.79
-5.42
-4.82
-4.01
-3.10
-2.26
-1.64
-1.37
-1.42
-1.65
-1.88
-1.97
-1.86
-1.62
-1.34
-1.11
-0.98
-0.96
-1.03
-1.14
-1.25
-1.29
-1.25
-1.11
-0.92
-0.74
-0.64
-0.67
-0.81
-0.99
-1.14
-1.15
-0.97
-0.59
-0.10
0.40
0.80
1.03
1.12
1.13
1.19
1.38
1.72
2.16
2.61
3.03
3.39
3.73
4.14
4.65
5.20
5.66
5.87
5.73
5.23
4.46
3.56
2.63
1.73
0.84
-0.01
-0.77
-1.38
-1.75
-1.91
-1.93
-1.92
-1.94
-2.00
-2.02
-1.92
-1.69
-1.36
-1.02
-0.75
-0.60
-0.57
-0.66
-0.85
-1.12
-1.42
-1.69
-1.84
-1.84
-1.70
-1.51
-1.36
-1.36
-1.52
-1.80
-2.13
-2.40
-2.59
-2.68
-2.67
-2.58
-2.41
-2.19
-1.95
-1.76
-1.68
-1.76
-1.99
-2.30
-2.59
-2.76
-2.75
-2.52
-2.16
-1.74
-1.37
-1.11
-0.95
-0.80
-0.58
-0.22
0.26
0.77
1.20
1.48
1.64
1.78
2.02
2.42
2.93
3.44
3.78
3.84
3.58
3.08
2.44
1.85
1.41
1.17
1.08
1.02
0.87
0.54
0.02
-0.60
-1.22
-1.79
-2.25
-2.61
-2.87
-3.00
-2.94
-2.65
-2.14
-1.50
-0.87
-0.34
0.01
0.20
0.30
0.38
0.46
0.60
0.84
1.31
2.09
3.24
4.71
6.28
7.65
8.46
8.49
7.70
6.23
4.42
2.59
1.02
-0.17
-0.96
-1.40
-1.55
-1.49
-1.27
-1.00
-0.80
-0.78
-0.96
-1.27
-1.57
-1.70
-1.58
-1.24
-0.74
-0.19
0.35
0.84
1.27
1.64
1.95
2.22
2.49
2.79
3.13
3.45
3.70
3.83
3.79
3.59
3.26
2.85
2.40
1.95
1.54
1.19
0.92
0.70
0.50
0.25
-0.11
-0.61
-1.21
-1.81
-2.32
-2.63
-2.68
-2.48
-2.07
-1.51
-0.85
-0.18
0.42
0.83
0.98
0.83
0.47
0.04
-0.31
-0.50
-0.56
-0.57
-0.61
-0.69
-0.76
-0.78
-0.72
-0.65
-0.65
-0.76
-0.98
-1.22
-1.38
-1.43
-1.40
-1.34
-1.33
-1.37
-1.42
-1.44
-1.39
-1.29
-1.18
-1.08
-0.99
-0.91
-0.87
-0.90
-1.04
-1.26
-1.52
-1.69
-1.69
-1.49
-1.18
-0.89
-0.74
-0.75
-0.83
-0.82
-0.66
-0.39
-0.16
-0.09
-0.23
-0.45
-0.57
-0.43
-0.03
0.48
0.88
1.01
0.89
0.64
0.46
0.46
0.63
0.87
1.04
1.08
1.01
0.89
0.78
0.69
0.61
0.55
0.53
0.58
0.70
0.83
0.86
0.69
0.31
-0.21
-0.72
-1.07
-1.19
-1.12
-0.97
-0.88
-0.93
-1.10
-1.32
-1.54
-1.73
-1.97
-2.29
-2.71
-3.15
-3.53
-3.75
-3.77
-3.64
-3.45
-3.29
-3.23
-3.31
-3.54
-3.87
-4.25
-4.60
-4.83
-4.89
-4.76
-4.52
-4.30
-4.29
-4.68
-5.59
-6.97
-8.61
-10.14
-11.26
-11.87
-12.17
-12.58
-13.45
-14.85
-16.45
-17.65
-17.93
-17.15
-15.63
-14.05
-13.11
-13.23
-14.46
-16.57
-19.27
-22.23
-25.00
-26.80
-26.50
-22.91
-15.23
-3.51
11.23
27.28
42.79
56.27
66.88
74.40
79.06
81.32
81.74
81.00
79.87
79.16
79.74
82.44
87.67
94.82
101.90
105.73
103.12
92.22
73.51
49.69
24.48
1.08
-18.90
-35.39
-48.93
-59.64
-66.91
-69.88
-68.29
-63.08
-56.11
-49.34
-44.07
-40.54
-38.21
-36.38
-34.55
-32.53
-30.49
-28.65
-27.09
-25.74
-24.47
-23.11
-21.63
-20.11
-18.69
-17.53
-16.66
-16.03
-15.51
-14.96
-14.31
-13.56
-12.72
-11.88
-11.10
-10.44
-9.92
-9.52
-9.23
-8.99
-8.81
-8.68
-8.58
-8.51
-8.38
-8.09
-7.56
-6.77
-5.75
-4.63
-3.53
-2.55
-1.73
-1.09
-0.70
-0.62
-0.93
-1.61
-2.49
-3.33
-3.83
-3.78
-3.15
-2.13
-1.13
-0.61
-0.93
-2.22
-4.29
-6.73
-9.09
-11.01
-12.40
-13.45
-14.39
-15.47
-16.90
-18.81
-21.15
-23.48
-24.79
-23.76
-19.31
-11.27
-0.80
9.94
18.60
23.70
25.12
24.03
22.05
20.38
19.34
18.55
17.47
15.94
14.31
13.14
12.79
13.13
13.65
13.75
13.02
11.55
9.83
8.48
7.92
8.21
9.00
9.75
10.00
9.54
8.52
7.30
6.27
5.69
5.66
6.06
6.67
7.15
7.20
6.67
5.59
4.26
3.11
2.57
2.83
3.82
5.24
6.74
8.08
9.23
10.34
11.63
13.24
15.17
17.33
19.54
21.63
23.51
25.17
26.80
28.79
31.58
35.55
40.74
46.78
52.89
58.20
62.14
64.81
66.98
69.84
74.44
81.18
89.70
98.99
107.94
115.67
121.75
126.17
129.10
130.76
131.19
129.74
124.78
113.72
93.59
62.61
21.74
-24.82
-70.38
-107.59
-130.46
-135.84
-124.01
-98.60
-65.85
-33.34
-8.19
4.89
4.96
-5.02
-19.75
-34.05
-45.00
-52.61
-58.74
-65.16
-72.12
-78.32
-82.15
-82.98
-81.69
-79.93
-78.87
-78.41
-77.19
-73.25
-65.26
-53.34
-39.06
-24.80
-12.77
-4.17
1.05
3.80
5.23
6.10
6.61
6.67
6.14
5.13
3.87
2.55
1.16
-0.54
-2.86
-5.98
-9.83
-14.11
-18.47
-22.63
-26.55
-30.36
-34.36
-38.87
-44.19
-50.51
-57.86
-66.03
-74.54
-82.71
-89.80
-95.34
-99.38
-102.73
-106.66
-112.37
-120.36
-130.06
-139.96
-148.33
-154.15
-157.65
-160.42
-164.72
-172.67
-185.20
-201.38
-218.29
-231.30
-235.26
-226.20
-203.04
-168.48
-128.56
-90.70
-60.97
-41.87
-31.50
-24.53
-14.43
4.01
32.85
70.52
112.57
153.23
187.24
211.18
223.98
226.64
221.30
210.30
195.69
179.18
162.52
147.60
136.14
128.99
125.58
124.02
121.71
116.57
107.88
96.55
84.58
74.12
66.48
61.76
58.92
56.43
52.94
47.56
39.92
30.06
18.38
5.84
-6.00
-15.27
-20.41
-20.90
-17.58
-12.26
-6.90
-2.69
0.23
2.47
4.68
6.91
8.64
9.19
8.36
6.61
4.89
4.07
4.47
5.76
7.24
8.19
8.20
7.35
6.02
4.70
3.77
3.41
3.55
3.96
4.38
4.57
4.41
3.93
3.30
2.73
2.41
2.40
2.61
2.89
3.09
3.16
3.12
3.04
2.94
2.79
2.53
2.12
1.63
1.14
0.78
0.62
0.68
0.93
1.28
1.64
1.94
2.16
2.34
2.56
2.92
3.42
3.99
4.50
4.81
4.89
4.85
4.89
5.24
6.00
7.09
8.30
9.34
10.02
10.36
10.58
11.05
12.15
14.03
16.52
19.18
21.41
22.73
23.02
22.63
22.27
22.79
24.77
28.29
32.87
37.62
41.60
44.24
45.54
46.14
47.09
49.55
54.35
61.63
70.61
79.49
85.66
86.36
79.64
65.31
45.37
23.56
4.25
-9.10
-15.01
-14.16
-8.67
-0.89
7.49
15.81
24.05
32.17
39.83
46.48
51.87
56.41
61.19
67.53
76.35
87.88
101.56
116.38
130.99
143.72
152.51
155.05
149.51
135.41
114.03
88.00
59.88
30.95
0.71
-32.14
-68.03
-105.22
-139.89
-167.54
-185.19
-192.69
-192.67
-189.13
-185.61
-184.00
-184.48
-186.29
-188.66
-191.19
-193.77
-196.17
-197.83
-197.93
-195.91
-191.92
-187.01
-182.90
-181.03
-181.53
-182.40
-179.73
-169.20
-148.13
-116.94
-79.18
-40.08
-4.27
26.05
51.36
73.73
95.24
116.76
137.63
155.93
169.04
174.36
169.99
155.58
132.97
106.10
79.89
58.61
44.36
36.77
34.01
34.14
35.98
38.95
42.27
44.41
43.32
37.50
26.97
13.52
-0.14
-11.57
-19.35
-23.26
-23.92
-22.17
-18.89
-15.04
-11.86
-10.65
-12.29
-16.73
-22.88
-28.96
-33.22
-34.66
-33.39
-30.32
-26.55
-22.88
-19.55
-16.44
-13.55
-11.16
-9.88
-10.20
-12.19
-15.24
-18.30
-20.33
-20.72
-19.54
-17.44
-15.25
-13.54
-12.41
-11.40
-9.77
-6.75
-1.85
4.98
13.27
22.13
30.48
37.30
41.92
44.20
44.51
43.58
42.26
41.30
41.05
41.39
41.63
40.75
37.72
31.97
23.85
14.56
5.87
-0.64
-4.21
-5.18
-4.64
-3.83
-3.40
-3.29
-2.95
-1.99
-0.57
0.73
1.31
1.10
0.64
0.65
1.52
2.88
3.81
3.33
1.04
-2.60
-6.54
-9.65
-11.22
-11.22
-10.12
-8.63
-7.36
-6.63
-6.45
-6.56
-6.51
-5.89
-4.50
-2.51
-0.41
1.13
1.56
0.57
-1.81
-5.36
-9.75
-14.65
-19.73
-24.64
-28.95
-32.26
-34.32
-35.14
-35.02
-34.48
-34.07
-34.15
-34.76
-35.64
-36.28
-36.18
-35.00
-32.70
-29.53
-26.06
-22.97
-20.89
-20.18
-20.78
-22.19
-23.65
-24.53
-24.66
-24.46
-24.79
-26.54
-30.16
-35.43
-41.64
-48.03
-54.22
-60.49
-67.57
-76.25
-86.94
-99.51
-113.37
-127.75
-141.88
-155.01
-166.33
-174.97
-180.32
-182.26
-181.28
-178.02
-172.59
-164.03
-150.30
-128.89
-97.86
-56.89
-7.81
45.42
97.52
143.01
177.60
199.14
208.03
206.81
199.09
188.25
176.49
164.61
152.60
140.54
129.11
119.43
112.44
108.25
105.96
104.09
101.35
97.24
92.09
86.71
81.60
76.50
70.43
62.31
51.65
39.11
26.40
15.67
8.61
5.76
6.44
9.07
11.95
13.85
14.34
13.69
12.52
11.35
10.42
9.62
8.69
7.46
5.93
4.31
2.94
2.03
1.65
1.64
1.76
1.82
1.73
1.56
1.44
1.43
1.54
1.66
1.67
1.50
1.13
0.62
0.07
-0.39
-0.61
-0.48
0.04
0.86
1.78
2.61
3.27
3.85
4.53
5.43
6.57
7.74
8.66
9.07
8.90
8.25
7.33
6.32
5.31
4.27
3.12
1.86
0.62
-0.42
-1.06
-1.23
-0.99
-0.55
-0.13
0.18
0.42
0.72
1.19
1.81
2.47
3.01
3.31
3.33
3.07
2.59
1.92
1.10
0.22
-0.56
-1.09
-1.23
-0.99
-0.50
-0.01
0.20
-0.10
-0.95
-2.26
-3.79
-5.24
-6.38
-7.02
-7.11
-6.68
-5.82
-4.68
-3.49
-2.54
-2.06
-2.15
-2.73
-3.53
-4.24
-4.64
-4.69
-4.49
-4.25
-4.13
-4.22
-4.52
-4.95
-5.34
-5.51
-5.33
-4.75
-3.88
-2.96
-2.21
-1.72
-1.39
-1.01
-0.40
0.49
1.51
2.45
3.14
3.53
3.66
3.61
3.41
3.06
2.56
2.01
1.56
1.37
1.56
2.14
3.01
4.01
4.93
5.58
5.79
5.49
4.74
3.71
2.62
1.70
1.02
0.57
0.24
-0.06
-0.39
-0.70
-0.91
-0.96
-0.88
-0.71
-0.51
-0.31
-0.07
0.23
0.56
0.88
1.10
1.21
1.20
1.10
0.88
0.50
-0.09
-0.87
-1.76
-2.58
-3.17
-3.41
-3.26
-2.78
-2.05
-1.22
-0.44
0.15
0.43
0.37
-0.01
-0.58
-1.22
-1.84
-2.46
-3.12
-3.85
-4.56
-5.05
-5.10
-4.63
-3.76
-2.83
-2.27
-2.37
-3.14
-4.30
-5.39
-6.05
-6.13
-5.77
-5.28
-4.98
-5.14
-5.81
-6.90
-8.09
-8.89
-8.77
-7.35
-4.58
-0.85
3.12
6.51
8.73
9.57
9.24
8.18
6.93
5.92
5.44
5.61
6.41
7.69
9.16
10.55
11.69
12.55
13.25
13.92
14.55
14.99
15.04
14.57
13.67
12.58
11.60
10.82
10.14
9.22
7.78
5.70
3.19
0.67
-1.36
-2.57
-2.88
-2.46
-1.59
-0.53
0.54
1.58
2.56
3.44
4.11
4.44
4.31
3.71
2.72
1.56
0.43
-0.49
-1.21
-1.85
-2.56
-3.46
-4.51
-5.58
-6.48
-7.05
-7.26
-7.16
-6.83
-6.37
-5.86
-5.38
-4.99
-4.73
-4.58
-4.47
-4.27
-3.88
-3.29
-2.58
-1.89
-1.37
-1.07
-0.95
-0.93
-0.90
-0.81
-0.68
-0.60
-0.60
-0.69
-0.81
-0.92
-1.01
-1.11
-1.25
-1.38
-1.41
-1.26
-0.92
-0.50
-0.19
-0.12
-0.30
-0.63
-0.92
-1.04
-1.00
-0.87
-0.75
-0.67
-0.62
-0.52
-0.32
-0.06
0.17
0.26
0.14
-0.23
-0.75
-1.33
-1.81
-2.11
-2.22
-2.27
-2.42
-2.81
-3.46
-4.26
-4.97
-5.42
-5.52
-5.33
-5.05
-4.88
-4.95
-5.30
-5.85
-6.44
-6.94
-7.29
-7.50
-7.65
-7.80
-7.97
-8.06
-7.96
-7.53
-6.76
-5.72
-4.59
-3.56
-2.71
-2.01
-1.29
-0.34
1.03
2.85
5.01
7.30
9.45
11.15
12.14
12.19
11.22
9.36
6.96
4.54
2.60
1.38
0.85
0.71
0.60
0.29
-0.22
-0.75
-1.12
-1.22
-1.05
-0.67
-0.11
0.60
1.46
2.44
3.41
4.27
4.87
5.15
5.09
4.74
4.22
3.69
3.31
3.19
3.36
3.72
4.13
4.42
4.51
4.44
4.31
4.24
4.33
4.57
4.86
5.08
5.10
4.85
4.35
3.69
2.98
2.33
1.79
1.36
0.99
0.58
-0.01
-0.91
-2.19
-3.80
-5.55
-7.11
-8.17
-8.46
-7.93
-6.74
-5.20
-3.67
-2.48
-1.77
-1.56
-1.76
-2.21
-2.79
-3.38
-3.88
-4.18
-4.19
-3.87
-3.26
-2.49
-1.74
-1.18
-0.88
-0.86
-1.04
-1.33
-1.63
-1.94
-2.27
-2.66
-3.08
-3.43
-3.52
-3.22
-2.43
-1.24
0.10
1.34
2.27
2.88
3.31
3.73
4.26
4.84
5.34
5.60
5.59
5.41
5.24
5.21
5.34
5.52
5.60
5.51
5.27
5.04
5.01
5.27
5.81
6.48
7.00
7.13
6.70
5.76
4.53
3.34
2.51
2.19
2.31
2.59
2.71
2.49
1.97
1.37
0.96
0.82
0.77
0.39
-0.70
-2.65
-5.20
-7.77
-9.70
-10.54
-10.32
-9.54
-8.98
-9.40
-11.13
-13.91
-16.89
-18.98
-19.27
-17.46
-14.02
-10.00
-6.70
-5.08
-5.52
-7.47
-9.58
-9.95
-6.63
1.76
15.35
32.51
49.91
63.28
68.76
64.40
50.97
31.73
11.13
-6.84
-19.96
-28.02
-32.23
-34.07
-34.49
-33.71
-31.69
-28.68
-25.46
-23.11
-22.42
-23.41
-25.23
-26.62
-26.39
-23.99
-19.75
-14.66
-9.90
-6.32
-4.04
-2.44
-0.54
2.47
6.78
11.83
16.74
20.82
24.04
27.02
30.67
35.63
41.83
48.54
54.63
58.97
60.66
59.02
53.60
44.35
31.85
17.46
3.13
-9.15
-17.98
-23.05
-25.05
-25.21
-24.65
-23.98
-23.30
-22.47
-21.45
-20.42
-19.67
-19.41
-19.59
-19.94
-20.17
-20.10
-19.80
-19.56
-19.68
-20.27
-21.19
-22.10
-22.59
-22.47
-21.78
-20.82
-20.00
-19.61
-19.72
-20.16
-20.59
-20.60
-19.82
-18.02
-15.14
-11.39
-7.24
-3.30
-0.18
1.78
2.69
3.12
3.85
5.59
8.60
12.58
16.78
20.29
22.49
23.21
22.78
21.79
20.74
19.87
19.12
18.25
17.12
15.74
14.31
13.04
12.04
11.22
10.39
9.41
8.29
7.20
6.41
6.09
6.22
6.61
6.99
7.17
7.07
6.76
6.37
6.05
5.88
5.91
6.12
6.42
6.69
6.77
6.57
6.07
5.37
4.61
3.92
3.35
2.84
2.34
1.77
1.13
0.44
-0.29
-1.06
-1.92
-2.89
-3.95
-5.00
-5.86
-6.38
-6.46
-6.09
-5.35
-4.37
-3.28
-2.17
-1.09
-0.02
1.13
2.44
3.94
5.57
7.19
8.57
9.50
9.87
9.77
9.43
9.14
9.12
9.39
9.84
10.28
10.63
10.95
11.36
11.99
12.83
13.75
14.52
14.97
14.97
14.40
13.04
10.62
6.84
1.68
-4.57
-11.22
-17.41
-22.41
-25.81
-27.61
-28.07
-27.53
-26.31
-24.62
-22.59
-20.40
-18.23
-16.28
-14.70
-13.49
-12.53
-11.68
-10.79
-9.83
-8.85
-7.94
-7.23
-6.74
-6.42
-6.15
-5.80
-5.33
-4.78
-4.29
-3.98
-3.90
-3.93
-3.84
-3.37
-2.33
-0.69
1.39
3.69
5.97
8.10
10.01
11.68
13.02
13.93
14.34
14.26
13.83
13.30
12.87
12.59
12.34
11.92
11.13
9.88
8.22
6.24
4.07
1.84
-0.33
-2.31
-3.95
-5.17
-5.99
-6.50
-6.82
-7.03
-7.15
-7.19
-7.20
-7.28
-7.55
-8.05
-8.72
-9.36
-9.76
-9.77
-9.38
-8.68
-7.88
-7.28
-7.19
-7.97
-9.87
-12.96
-16.99
-21.45
-25.65
-28.96
-31.08
-32.08
-32.36
-32.36
-32.41
-32.47
-32.11
-30.67
-27.45
-21.96
-14.24
-4.88
5.01
14.14
21.43
26.33
28.90
29.67
29.32
28.40
27.17
25.78
24.33
23.05
22.23
22.05
22.46
23.16
23.71
23.76
23.17
22.06
20.75
19.62
19.00
19.06
19.74
20.74
21.64
22.05
21.80
21.08
20.35
20.18
20.96
22.66
24.85
26.85
28.09
28.37
27.94
27.36
27.23
28.01
29.86
32.74
36.26
39.67
41.65
40.62
35.15
24.75
10.34
-5.83
-20.88
-32.36
-39.16
-41.67
-41.42
-40.19
-39.26
-39.16
-39.78
-40.79
-41.94
-43.15
-44.40
-45.63
-46.70
-47.45
-47.76
-47.66
-47.30
-46.88
-46.60
-46.53
-46.62
-46.75
-46.83
-47.01
-47.64
-49.17
-51.73
-54.81
-57.13
-57.00
-52.87
-44.08
-31.12
-15.61
0.29
14.55
25.79
33.53
38.01
39.97
40.25
39.60
38.53
37.37
36.22
35.12
34.05
32.99
31.92
30.73
29.31
27.59
25.65
23.72
22.05
20.81
19.93
19.21
18.37
17.29
16.00
14.68
13.53
12.64
11.97
11.40
10.81
10.15
9.48
8.92
8.60
8.58
8.81
9.14
9.39
9.40
9.19
8.91
8.82
9.13
9.90
11.04
12.32
13.53
14.53
15.32
16.03
16.82
17.84
19.18
20.82
22.68
24.61
26.44
28.03
29.34
30.49
31.78
33.61
36.42
40.30
44.78
48.67
50.31
48.13
41.20
29.67
14.70
-1.85
-18.06
-32.30
-43.56
-51.33
-55.56
-56.58
-55.03
-51.77
-47.79
-43.96
-40.86
-38.69
-37.31
-36.39
-35.52
-34.36
-32.74
-30.69
-28.50
-26.54
-25.10
-24.29
-23.98
-23.85
-23.58
-22.98
-22.04
-20.93
-19.86
-19.01
-18.38
-17.78
-16.90
-15.35
-12.86
-9.32
-4.89
0.10
5.32
10.51
15.61
20.63
25.59
30.39
34.83
38.70
41.82
43.95
44.66
43.28
39.18
32.12
22.65
12.11
2.23
-5.50
-10.41
-12.78
-13.48
-13.44
-13.19
-12.81
-12.16
-11.20
-10.19
-9.54
-9.56
-10.24
-11.30
-12.31
-12.94
-13.08
-12.89
-12.65
-12.64
-12.98
-13.62
-14.31
-14.76
-14.76
-14.22
-13.25
-12.06
-10.89
-9.89
-9.03
-8.22
-7.32
-6.29
-5.24
-4.35
-3.85
-3.86
-4.34
-5.17
-6.18
-7.18
-8.08
-8.81
-9.38
-9.86
-10.38
-11.17
-12.39
-14.03
-15.89
-17.50
-18.31
-17.79
-15.65
-11.90
-6.91
-1.30
4.18
8.92
12.50
14.83
16.09
16.65
16.92
17.21
17.68
18.31
18.99
19.53
19.74
19.47
18.62
17.27
15.58
13.86
12.35
11.19
10.38
9.82
9.32
8.75
8.05
7.23
6.39
5.62
5.01
4.53
4.08
3.51
2.77
2.03
1.69
2.26
4.14
7.39
11.58
15.96
19.63
21.92
22.62
22.07
21.07
20.68
21.80
24.77
28.86
32.23
32.40
27.16
15.61
-1.19
-20.38
-38.07
-50.53
-55.27
-51.67
-40.90
-25.39
-8.10
8.23
21.66
31.31
37.37
40.91
43.37
46.00
49.17
52.09
52.97
49.79
41.25
27.62
10.87
-5.98
-20.01
-29.52
-34.40
-35.76
-35.13
-33.56
-31.48
-28.94
-26.06
-23.31
-21.28
-20.31
-20.18
-20.21
-19.66
-18.06
-15.46
-12.40
-9.62
-7.70
-6.87
-6.94
-7.41
-7.73
-7.47
-6.50
-4.99
-3.30
-1.85
-0.93
-0.59
-0.69
-0.93
-1.00
-0.72
-0.04
0.92
1.99
3.00
3.83
4.48
5.00
5.46
5.90
6.26
6.44
6.32
5.86
5.12
4.21
3.26
2.33
1.43
0.50
-0.51
-1.58
-2.69
-3.74
-4.65
-5.34
-5.75
-5.89
-5.78
-5.49
-5.11
-4.72
-4.36
-4.05
-3.77
-3.55
-3.38
-3.27
-3.18
-3.07
-2.88
-2.59
-2.26
-1.96
-1.80
-1.82
-1.97
-2.18
-2.33
-2.32
-2.13
-1.79
-1.40
-1.06
-0.86
-0.81
-0.87
-0.95
-0.95
-0.84
-0.61
-0.32
-0.05
0.19
0.37
0.49
0.52
0.42
0.20
-0.08
-0.32
-0.41
-0.35
-0.17
0.01
0.09
0.06
-0.02
-0.06
-0.00
0.15
0.36
0.55
0.64
0.63
0.51
0.33
0.15
0.03
0.03
0.14
0.31
0.46
0.52
0.46
0.32
0.14
-0.05
-0.23
-0.40
-0.58
-0.71
-0.76
-0.67
-0.45
-0.17
0.09
0.25
0.31
0.33
0.36
0.44
0.52
0.54
0.46
0.25
-0.05
-0.33
-0.53
-0.59
-0.49
-0.26
0.04
0.31
0.45
0.41
0.21
-0.05
-0.25
-0.31
-0.24
-0.09
0.02
0.05
0.01
-0.03
0.01
0.18
0.43
0.67
0.79
0.75
0.54
0.22
-0.13
-0.41
-0.54
-0.45
-0.17
0.26
0.71
1.05
1.19
1.08
0.77
0.36
-0.04
-0.31
-0.44
-0.45
-0.39
-0.29
-0.16
-0.01
0.16
0.29
0.32
0.20
-0.07
-0.43
-0.74
-0.89
-0.83
-0.59
-0.28
-0.00
0.19
0.29
0.34
0.35
0.31
0.20
0.03
-0.14
-0.22
-0.15
0.02
0.19
0.22
0.06
-0.24
-0.53
-0.69
-0.66
-0.49
-0.33
-0.26
-0.29
-0.37
-0.41
-0.38
-0.29
-0.20
-0.15
-0.14
-0.13
-0.11
-0.07
-0.04
-0.01
0.01
0.05
0.15
0.29
0.43
0.51
0.53
0.48
0.43
0.38
0.33
0.25
0.12
-0.04
-0.17
-0.21
-0.11
0.11
0.36
0.57
0.66
0.58
0.36
0.03
-0.33
-0.63
-0.77
-0.71
-0.49
-0.22
-0.00
0.08
0.07
0.05
0.12
0.33
0.58
0.74
0.70
0.43
0.03
-0.35
-0.58
-0.62
-0.50
-0.30
-0.10
0.08
0.23
0.37
0.46
0.46
0.35
0.13
-0.16
-0.42
-0.55
-0.51
-0.29
0.08
0.50
0.87
1.10
1.11
0.89
0.51
0.08
-0.23
-0.30
-0.12
0.21
0.53
0.68
0.58
0.26
-0.15
-0.52
-0.78
-0.89
-0.87
-0.78
-0.67
-0.57
-0.52
-0.54
-0.61
-0.69
-0.72
-0.69
-0.61
-0.48
-0.30
-0.05
0.28
0.62
0.87
0.92
0.73
0.39
0.04
-0.18
-0.24
-0.19
-0.12
-0.08
-0.04
0.06
0.23
0.42
0.54
0.51
0.35
0.14
-0.01
-0.04
0.01
0.08
0.08
0.01
-0.11
-0.21
-0.25
-0.27
-0.30
-0.42
-0.61
-0.83
-0.99
-1.03
-0.92
-0.71
-0.46
-0.28
-0.24
-0.37
-0.64
-0.92
-1.12
-1.15
-1.00
-0.73
-0.46
-0.26
-0.13
-0.03
0.10
0.28
0.47
0.58
0.53
0.32
0.01
-0.30
-0.52
-0.64
-0.66
-0.63
-0.56
-0.46
-0.31
-0.06
0.29
0.71
1.13
1.46
1.63
1.63
1.47
1.23
0.98
0.79
0.67
0.60
0.54
0.42
0.25
0.05
-0.10
-0.16
-0.10
0.04
0.18
0.24
0.19
0.03
-0.14
-0.27
-0.30
-0.23
-0.08
0.13
0.37
0.62
0.86
1.06
1.16
1.11
0.92
0.63
0.35
0.15
0.07
0.11
0.20
0.29
0.32
0.29
0.21
0.13
0.07
0.00
-0.10
-0.26
-0.45
-0.59
-0.60
-0.41
-0.06
0.34
0.65
0.73
0.57
0.22
-0.19
-0.57
-0.86
-1.06
-1.18
-1.20
-1.08
-0.77
-0.32
0.19
0.62
0.85
0.85
0.67
0.43
0.19
0.03
-0.07
-0.10
-0.07
0.02
0.13
0.24
0.31
0.33
0.34
0.38
0.46
0.55
0.57
0.46
0.24
-0.02
-0.22
-0.26
-0.11
0.18
0.52
0.82
1.04
1.17
1.21
1.16
0.97
0.64
0.23
-0.16
-0.42
-0.49
-0.40
-0.25
-0.13
-0.14
-0.27
-0.50
-0.77
-1.05
-1.27
-1.37
-1.30
-1.06
-0.74
-0.48
-0.40
-0.52
-0.74
-0.94
-1.02
-1.02
-1.05
-1.19
-1.43
-1.68
-1.77
-1.63
-1.29
-0.88
-0.56
-0.43
-0.53
-0.75
-0.95
-1.01
-0.83
-0.44
0.08
0.59
0.96
1.16
1.22
1.27
1.41
1.64
1.91
2.10
2.17
2.15
2.11
2.10
2.12
2.08
1.90
1.53
1.02
0.43
-0.14
-0.63
-0.99
-1.20
-1.26
-1.19
-1.07
-1.04
-1.18
-1.47
-1.79
-1.93
-1.79
-1.37
-0.82
-0.35
-0.05
0.08
0.15
0.29
0.52
0.79
1.01
1.14
1.19
1.22
1.30
1.42
1.53
1.60
1.62
1.60
1.54
1.45
1.27
0.99
0.64
0.29
0.05
0.03
0.25
0.62
0.99
1.20
1.15
0.85
0.42
-0.00
-0.32
-0.53
-0.71
-0.94
-1.20
-1.38
-1.37
-1.11
-0.69
-0.30
-0.14
-0.31
-0.77
-1.34
-1.84
-2.14
-2.18
-1.98
-1.59
-1.07
-0.51
0.02
0.42
0.65
0.68
0.58
0.38
0.15
-0.10
-0.31
-0.44
-0.41
-0.14
0.34
0.91
1.34
1.46
1.16
0.51
-0.27
-0.92
-1.25
-1.22
-0.93
-0.56
-0.25
-0.10
-0.07
-0.15
-0.28
-0.45
-0.64
-0.80
-0.83
-0.64
-0.19
0.46
1.14
1.64
1.80
1.57
1.05
0.45
-0.04
-0.32
-0.40
-0.35
-0.28
-0.25
-0.27
-0.30
-0.30
-0.23
-0.08
0.12
0.35
0.55
0.66
0.66
0.57
0.39
0.17
-0.07
-0.28
-0.45
-0.51
-0.43
-0.23
0.02
0.22
0.26
0.12
-0.16
-0.47
-0.70
-0.80
-0.74
-0.57
-0.33
-0.07
0.17
0.34
0.43
0.43
0.35
0.24
0.12
0.02
-0.04
-0.03
0.05
0.18
0.32
0.41
0.40
0.27
0.08
-0.08
-0.14
-0.05
0.18
0.49
0.77
0.95
0.93
0.68
0.21
-0.37
-0.89
-1.19
-1.17
-0.85
-0.41
-0.06
0.06
-0.06
-0.28
-0.45
-0.46
-0.35
-0.20
-0.12
-0.14
-0.20
-0.21
-0.10
0.09
0.29
0.40
0.34
0.11
-0.23
-0.58
-0.85
-0.96
-0.92
-0.77
-0.56
-0.31
0.00
0.37
0.78
1.14
1.35
1.34
1.14
0.81
0.48
0.25
0.14
0.17
0.30
0.46
0.58
0.60
0.49
0.24
-0.06
-0.31
-0.43
-0.41
-0.29
-0.16
-0.07
-0.05
-0.05
-0.04
0.02
0.13
0.25
0.34
0.36
0.28
0.12
-0.10
-0.33
-0.51
-0.62
-0.65
-0.59
-0.47
-0.29
-0.09
0.08
0.16
0.11
-0.09
-0.43
-0.83
-1.19
-1.43
-1.48
-1.33
-1.03
-0.66
-0.33
-0.10
-0.02
-0.06
-0.20
-0.40
-0.61
-0.79
-0.91
-0.94
-0.87
-0.71
-0.49
-0.26
-0.06
0.09
0.18
0.27
0.43
0.71
1.09
1.48
1.76
1.81
1.63
1.30
1.00
0.87
0.97
1.23
1.52
1.73
1.83
1.86
1.91
1.97
1.99
1.85
1.50
0.94
0.29
-0.29
-0.68
-0.87
-0.91
-0.94
-1.05
-1.26
-1.51
-1.70
-1.74
-1.58
-1.29
-0.96
-0.71
-0.61
-0.68
-0.91
-1.24
-1.59
-1.89
-2.02
-1.92
-1.53
-0.87
-0.08
0.66
1.13
1.23
0.97
0.52
0.06
-0.22
-0.26
-0.12
0.11
0.29
0.35
0.29
0.14
-0.03
-0.16
-0.21
-0.19
-0.10
0.02
0.16
0.30
0.43
0.51
0.53
0.45
0.27
0.02
-0.23
-0.41
-0.47
-0.42
-0.32
-0.20
-0.10
-0.01
0.10
0.25
0.46
0.69
0.93
1.18
1.45
1.73
1.94
2.00
1.80
1.31
0.62
-0.10
-0.65
-0.88
-0.78
-0.43
0.03
0.45
0.74
0.82
0.65
0.24
-0.37
-1.06
-1.70
-2.19
-2.48
-2.61
-2.68
-2.78
-2.94
-3.13
-3.24
-3.16
-2.85
-2.36
-1.81
-1.39
-1.25
-1.49
-2.10
-2.97
-3.90
-4.68
-5.14
-5.22
-5.05
-4.83
-4.81
-5.13
-5.80
-6.66
-7.48
-8.06
-8.33
-8.46
-8.72
-9.39
-10.59
-12.19
-13.84
-15.17
-15.97
-16.32
-16.54
-17.02
-18.02
-19.62
-21.69
-24.00
-26.18
-27.65
-27.62
-25.28
-20.17
-12.54
-3.44
5.61
13.18
18.44
21.42
22.77
23.27
23.46
23.45
23.09
22.31
21.22
20.18
19.53
19.42
19.73
20.15
20.30
19.93
19.04
17.81
16.53
15.49
14.80
14.44
14.26
14.08
13.82
13.46
13.07
12.76
12.59
12.57
12.67
12.81
13.00
13.31
13.87
14.78
16.01
17.32
18.41
18.98
18.98
18.63
18.41
18.85
20.28
22.58
25.08
26.67
26.12
22.46
15.43
5.68
-5.32
-15.80
-24.19
-29.68
-32.33
-32.86
-32.24
-31.19
-30.08
-28.91
-27.65
-26.37
-25.33
-24.77
-24.81
-25.27
-25.82
-26.13
-26.05
-25.64
-25.08
-24.51
-23.90
-23.08
-21.79
-19.89
-17.36
-14.36
-11.10
-7.72
-4.27
-0.77
2.75
6.13
9.13
11.48
13.03
13.79
13.94
13.72
13.36
12.94
12.47
11.90
11.25
10.63
10.18
10.05
10.23
10.56
10.79
10.68
10.16
9.38
8.69
8.39
8.65
9.33
10.08
10.51
10.35
9.64
8.66
7.85
7.63
8.21
9.53
11.22
12.80
13.83
14.09
13.68
13.01
12.55
12.79
14.04
16.40
19.66
23.17
25.85
26.39
23.73
17.56
8.69
-1.18
-10.07
-16.51
-20.05
-21.26
-21.22
-20.84
-20.56
-20.27
-19.72
-18.82
-17.78
-16.95
-16.52
-16.44
-16.39
-16.06
-15.23
-13.96
-12.50
-11.19
-10.28
-9.82
-9.74
-9.79
-9.73
-9.39
-8.77
-8.02
-7.38
-7.10
-7.26
-7.81
-8.50
-9.08
-9.34
-9.24
-8.88
-8.41
-7.95
-7.55
-7.21
-6.93
-6.80
-6.96
-7.56
-8.60
-9.93
-11.24
-12.22
-12.74
-12.85
-12.84
-13.09
-13.87
-15.31
-17.29
-19.49
-21.37
-22.30
-21.57
-18.64
-13.34
-6.03
2.43
10.92
18.35
24.05
27.85
30.04
31.07
31.40
31.28
30.85
30.19
29.39
28.60
27.92
27.40
27.02
26.72
26.42
26.07
25.59
24.91
23.98
22.82
21.59
20.57
19.99
19.89
19.97
19.71
18.62
16.50
13.59
10.39
7.44
4.98
2.92
1.02
-0.83
-2.49
-3.62
-4.03
-3.90
-3.80
-4.43
-6.20
-8.97
-12.15
-14.94
-16.73
-17.34
-16.96
-16.04
-14.96
-13.96
-13.10
-12.35
-11.66
-11.03
-10.46
-9.94
-9.43
-8.86
-8.15
-7.24
-6.14
-4.94
-3.78
-2.78
-2.04
-1.52
-1.11
-0.65
-0.04
0.73
1.53
2.14
2.36
2.07
1.29
0.22
-0.87
-1.70
-2.12
-2.13
-1.93
-1.78
-1.89
-2.31
-2.91
-3.49
-3.86
-4.00
-4.00
-4.02
-4.11
-4.25
-4.25
-3.97
-3.39
-2.64
-1.96
-1.57
-1.54
-1.75
-2.00
-2.08
-1.89
-1.46
-0.93
-0.45
-0.13
-0.03
-0.09
-0.24
-0.39
-0.48
-0.47
-0.38
-0.27
-0.19
-0.24
-0.41
-0.68
-0.93
-1.08
-1.04
-0.79
-0.43
-0.06
0.20
0.26
0.13
-0.11
-0.38
-0.57
-0.66
-0.61
-0.43
-0.11
0.31
0.72
1.00
1.05
0.80
0.31
-0.24
-0.68
-0.87
-0.77
-0.48
-0.13
0.17
0.35
0.36
0.22
-0.04
-0.34
-0.58
-0.68
-0.59
-0.35
-0.07
0.15
0.22
0.17
0.05
-0.08
-0.17
-0.21
-0.23
-0.26
-0.30
-0.34
-0.35
-0.31
-0.21
-0.02
0.24
0.51
0.68
0.67
0.45
0.07
-0.33
-0.62
-0.70
-0.56
-0.29
0.01
0.24
0.36
0.36
0.31
0.23
0.16
0.10
0.02
-0.08
-0.18
-0.27
-0.28
-0.18
0.01
0.24
0.42
0.48
0.40
0.24
0.11
0.09
0.19
0.39
0.56
0.63
0.57
0.41
0.25
0.19
0.30
0.57
0.93
1.26
1.49
1.56
1.47
1.24
0.92
0.56
0.21
-0.06
-0.18
-0.12
0.06
0.26
0.34
0.23
-0.07
-0.47
-0.80
-0.96
-0.86
-0.55
-0.13
0.24
0.46
0.47
0.30
0.03
-0.23
-0.43
-0.57
-0.68
-0.77
-0.85
-0.90
-0.88
-0.79
-0.67
-0.59
-0.58
-0.64
-0.73
-0.79
-0.77
-0.65
-0.47
-0.30
-0.17
-0.10
-0.06
0.00
0.11
0.25
0.37
0.42
0.40
0.34
0.30
0.31
0.39
0.49
0.57
0.59
0.56
0.49
0.39
0.31
0.26
0.25
0.28
0.31
0.29
0.20
0.05
-0.08
-0.11
-0.02
0.13
0.24
0.23
0.11
-0.04
-0.12
-0.13
-0.15
-0.28
-0.60
-1.00
-1.30
-1.32
-1.00
-0.44
0.14
0.54
0.66
0.55
0.35
0.15
0.01
-0.07
-0.11
-0.10
0.02
0.26
0.57
0.85
0.96
0.86
0.59
0.28
0.09
0.07
0.16
0.26
0.23
0.04
-0.26
-0.57
-0.79
-0.90
-0.90
-0.82
-0.68
-0.47
-0.17
0.20
0.60
0.95
1.16
1.20
1.06
0.80
0.49
0.20
-0.04
-0.23
-0.34
-0.36
-0.31
-0.21
-0.12
-0.11
-0.20
-0.38
-0.57
-0.70
-0.74
-0.70
-0.60
-0.48
-0.33
-0.13
0.09
0.28
0.37
0.29
0.08
-0.16
-0.32
-0.31
-0.15
0.09
0.29
0.37
0.31
0.18
0.06
0.01
0.06
0.15
0.22
0.24
0.21
0.16
0.11
0.06
-0.05
-0.22
-0.41
-0.53
-0.49
-0.27
0.03
0.26
0.30
0.12
-0.19
-0.48
-0.62
-0.57
-0.38
-0.15
0.03
0.15
0.20
0.23
0.23
0.22
0.17
0.05
-0.13
-0.34
-0.54
-0.65
-0.60
-0.40
-0.09
0.25
0.55
0.79
0.98
1.15
1.26
1.26
1.10
0.78
0.37
-0.03
-0.31
-0.43
-0.44
-0.38
-0.32
-0.26
-0.20
-0.14
-0.10
-0.09
-0.13
-0.18
-0.20
-0.17
-0.11
-0.07
-0.10
-0.21
-0.33
-0.37
-0.29
-0.10
0.10
0.21
0.20
0.07
-0.09
-0.20
-0.23
-0.23
-0.24
-0.26
-0.27
-0.21
-0.05
0.18
0.43
0.63
0.75
0.85
0.94
1.05
1.11
1.07
0.86
0.52
0.13
-0.22
-0.48
-0.67
-0.84
-1.03
-1.19
-1.24
-1.13
-0.84
-0.47
-0.14
0.03
0.03
-0.11
-0.27
-0.38
-0.40
-0.30
-0.11
0.14
0.45
0.74
0.97
1.08
1.03
0.87
0.65
0.47
0.37
0.36
0.42
0.51
0.59
0.63
0.61
0.54
0.40
0.23
0.06
-0.10
-0.24
-0.38
-0.51
-0.61
-0.65
-0.59
-0.43
-0.23
-0.05
0.05
0.06
0.01
-0.05
-0.06
-0.01
0.05
0.06
-0.05
-0.31
-0.68
-1.02
-1.22
-1.16
-0.86
-0.42
0.01
0.32
0.46
0.48
0.50
0.54
0.60
0.59
0.45
0.20
-0.12
-0.41
-0.58
-0.61
-0.54
-0.41
-0.25
-0.10
0.06
0.21
0.33
0.38
0.34
0.20
-0.02
-0.27
-0.52
-0.70
-0.78
-0.74
-0.59
-0.39
-0.20
-0.07
0.01
0.07
0.17
0.33
0.51
0.66
0.71
0.65
0.53
0.41
0.33
0.30
0.28
0.24
0.18
0.13
0.13
0.19
0.28
0.33
0.29
0.16
-0.03
-0.20
-0.28
-0.22
-0.04
0.20
0.43
0.57
0.59
0.45
0.21
-0.09
-0.38
-0.58
-0.66
-0.61
-0.48
-0.33
-0.23
-0.18
-0.15
-0.10
-0.01
0.09
0.10
-0.02
-0.25
-0.48
-0.55
-0.37
0.04
0.55
0.94
1.06
0.87
0.48
0.05
-0.27
-0.41
-0.43
-0.39
-0.35
-0.35
-0.36
-0.37
-0.35
-0.35
-0.40
-0.52
-0.67
-0.80
-0.81
-0.69
-0.49
-0.32
-0.31
-0.52
-0.89
-1.30
-1.59
-1.69
-1.59
-1.37
-1.15
-0.98
-0.91
-0.91
-0.97
-1.09
-1.25
-1.40
-1.46
-1.40
-1.19
-0.96
-0.87
-1.07
-1.66
-2.55
-3.55
-4.38
-4.82
-4.81
-4.46
-4.00
-3.71
-3.81
-4.38
-5.35
-6.50
-7.60
-8.43
-8.96
-9.33
-9.83
-10.68
-11.98
-13.53
-15.00
-15.96
-16.17
-15.63
-14.56
-13.37
-12.47
-12.27
-13.03
-14.65
-16.53
-17.47
-16.01
-10.94
-1.96
9.96
22.78
34.17
42.34
46.74
48.01
47.49
46.55
46.10
46.49
47.67
49.31
50.69
50.72
48.07
41.69
31.48
18.57
5.11
-6.56
-14.80
-19.26
-20.72
-20.49
-19.70
-18.89
-18.10
-17.20
-16.20
-15.34
-14.90
-14.90
-15.09
-15.04
-14.37
-12.98
-11.12
-9.22
-7.77
-7.05
-7.07
-7.58
-8.20
-8.58
-8.51
-8.02
-7.25
-6.43
-5.73
-5.27
-5.07
-5.10
-5.34
-5.72
-6.19
-6.59
-6.78
-6.64
-6.15
-5.42
-4.72
-4.34
-4.54
-5.33
-6.42
-7.22
-7.04
-5.37
-2.11
2.34
7.22
11.70
15.19
17.46
18.68
19.19
19.35
19.49
19.86
20.55
21.43
22.05
21.71
19.74
15.86
10.45
4.46
-0.97
-4.95
-7.21
-8.03
-7.99
-7.60
-7.10
-6.50
-5.77
-4.97
-4.33
-4.03
-4.15
-4.56
-5.01
-5.24
-5.12
-4.73
-4.26
-3.93
-3.87
-4.05
-4.32
-4.44
-4.27
-3.78
-3.06
-2.33
-1.78
-1.51
-1.49
-1.62
-1.77
-1.83
-1.76
-1.58
-1.36
-1.13
-0.90
-0.63
-0.24
0.32
1.05
1.87
2.64
3.21
3.45
3.34
2.95
2.40
1.81
1.24
0.69
0.19
-0.21
-0.43
-0.42
-0.18
0.18
0.51
0.66
0.58
0.33
0.04
-0.14
-0.17
-0.05
0.12
0.23
0.27
0.25
0.22
0.19
0.15
0.03
-0.18
-0.50
-0.84
-1.13
-1.34
-1.44
-1.46
-1.45
-1.41
-1.33
-1.23
-1.14
-1.13
-1.22
-1.38
-1.50
-1.46
-1.19
-0.74
-0.23
0.15
0.26
0.08
-0.28
-0.65
-0.88
-0.88
-0.68
-0.41
-0.21
-0.18
-0.34
-0.61
-0.87
-0.98
-0.89
-0.64
-0.32
-0.06
0.07
0.03
-0.13
-0.36
-0.57
-0.71
-0.73
-0.63
-0.44
-0.21
0.01
0.20
0.34
0.47
0.55
0.59
0.53
0.34
0.04
-0.33
-0.70
-1.03
-1.31
-1.55
-1.73
-1.81
-1.75
-1.54
-1.20
-0.84
-0.55
-0.43
-0.51
-0.75
-1.10
-1.50
-1.86
-2.12
-2.24
-2.20
-2.02
-1.78
-1.56
-1.44
-1.46
-1.57
-1.69
-1.66
-1.39
-0.84
-0.12
0.58
1.05
1.17
0.95
0.55
0.22
0.15
0.46
1.07
1.86
2.64
3.26
3.60
3.62
3.33
2.78
2.12
1.50
1.06
0.87
0.88
1.02
1.18
1.27
1.28
1.20
1.08
0.98
0.98
1.11
1.34
1.60
1.75
1.71
1.46
1.02
0.52
0.04
-0.37
-0.68
-0.93
-1.13
-1.29
-1.41
-1.47
-1.46
-1.35
-1.12
-0.77
-0.34
0.11
0.53
0.86
1.10
1.26
1.37
1.43
1.49
1.56
1.67
1.81
1.99
2.17
2.33
2.41
2.41
2.28
2.05
1.72
1.38
1.08
0.88
0.74
0.60
0.39
0.07
-0.30
-0.62
-0.79
-0.80
-0.73
-0.69
-0.78
-1.00
-1.30
-1.57
-1.76
-1.84
-1.84
-1.80
-1.70
-1.51
-1.24
-0.92
-0.61
-0.39
-0.30
-0.33
-0.42
-0.50
-0.52
-0.47
-0.35
-0.21
-0.09
-0.06
-0.15
-0.35
-0.60
-0.81
-0.92
-0.90
-0.80
-0.68
-0.63
-0.68
-0.82
-0.98
-1.09
-1.06
-0.87
-0.53
-0.15
0.17
0.31
0.22
-0.04
-0.35
-0.57
-0.60
-0.44
-0.14
0.21
0.49
0.61
0.53
0.27
-0.08
-0.40
-0.58
-0.57
-0.43
-0.23
-0.06
0.05
0.17
0.32
0.54
0.77
0.90
0.84
0.58
0.20
-0.17
-0.35
-0.30
-0.06
0.25
0.49
0.58
0.49
0.28
0.02
-0.25
-0.48
-0.65
-0.72
-0.65
-0.45
-0.15
0.18
0.47
0.66
0.70
0.59
0.33
-0.04
-0.45
-0.79
-0.94
-0.87
-0.62
-0.36
-0.23
-0.32
-0.60
-0.92
-1.13
-1.08
-0.77
-0.29
0.24
0.68
0.96
1.08
1.09
1.04
0.96
0.85
0.69
0.45
0.13
-0.20
-0.48
-0.62
-0.57
-0.34
-0.01
0.30
0.50
0.55
0.47
0.33
0.21
0.15
0.16
0.18
0.16
0.06
-0.09
-0.24
-0.28
-0.18
0.08
0.38
0.58
0.57
0.32
-0.11
-0.57
-0.90
-1.02
-0.92
-0.66
-0.33
0.00
0.27
0.45
0.51
0.42
0.25
0.07
-0.04
-0.01
0.14
0.36
0.55
0.65
0.66
0.60
0.50
0.35
0.13
-0.11
-0.31
-0.34
-0.16
0.17
0.48
0.58
0.36
-0.14
-0.74
-1.20
-1.37
-1.24
-0.92
-0.54
-0.20
0.07
0.29
0.45
0.53
0.50
0.38
0.22
0.08
-0.00
-0.03
-0.02
0.01
0.08
0.22
0.38
0.51
0.49
0.29
-0.04
-0.33
-0.46
-0.37
-0.16
0.03
0.07
-0.02
-0.15
-0.19
-0.09
0.09
0.21
0.19
0.04
-0.16
-0.30
-0.35
-0.31
-0.27
-0.25
-0.24
-0.19
-0.09
0.03
0.11
0.12
0.12
0.16
0.28
0.44
0.53
0.45
0.22
-0.08
-0.28
-0.26
-0.01
0.33
0.60
0.68
0.52
0.20
-0.16
-0.45
-0.62
-0.67
-0.64
-0.60
-0.57
-0.55
-0.53
-0.48
-0.36
-0.19
0.02
0.19
0.26
0.18
-0.04
-0.33
-0.59
-0.70
-0.60
-0.30
0.07
0.41
0.62
0.71
0.77
0.87
1.04
1.22
1.32
1.28
1.11
0.90
0.76
0.74
0.83
0.94
0.98
0.91
0.76
0.54
0.32
0.10
-0.09
-0.23
-0.29
-0.26
-0.19
-0.11
-0.09
-0.19
-0.38
-0.63
-0.88
-1.07
-1.18
-1.19
-1.09
-0.88
-0.60
-0.29
-0.04
0.12
0.19
0.20
0.23
0.30
0.39
0.42
0.33
0.13
-0.14
-0.42
-0.66
-0.83
-0.96
-1.05
-1.06
-0.95
-0.67
-0.26
0.17
0.48
0.54
0.33
-0.06
-0.49
-0.81
-0.94
-0.90
-0.75
-0.56
-0.37
-0.20
-0.04
0.11
0.23
0.31
0.32
0.29
0.24
0.24
0.31
0.47
0.66
0.79
0.79
0.64
0.38
0.12
-0.03
0.01
0.24
0.55
0.80
0.90
0.80
0.57
0.29
0.06
-0.07
-0.12
-0.12
-0.11
-0.08
-0.02
0.09
0.21
0.28
0.24
0.09
-0.12
-0.34
-0.48
-0.52
-0.47
-0.35
-0.24
-0.18
-0.18
-0.24
-0.28
-0.25
-0.10
0.14
0.40
0.58
0.62
0.50
0.28
-0.00
-0.26
-0.46
-0.58
-0.60
-0.51
-0.34
-0.16
-0.02
0.01
-0.04
-0.14
-0.23
-0.28
-0.29
-0.26
-0.20
-0.09
0.10
0.36
0.63
0.84
0.89
0.78
0.58
0.39
0.31
0.36
0.46
0.49
0.36
0.07
-0.33
-0.70
-0.94
-0.99
-0.88
-0.63
-0.31
0.04
0.37
0.61
0.67
0.50
0.11
-0.42
-0.93
-1.27
-1.36
-1.18
-0.79
-0.30
0.16
0.49
0.62
0.56
0.37
0.16
0.02
-0.01
0.01
0.02
0.01
0.02
0.10
0.30
0.54
0.70
0.62
0.27
-0.25
-0.77
-1.11
-1.19
-1.07
-0.86
-0.66
-0.52
-0.44
-0.39
-0.39
-0.42
-0.47
-0.49
-0.47
-0.39
-0.30
-0.26
-0.32
-0.44
-0.57
-0.64
-0.63
-0.54
-0.39
-0.20
0.05
0.33
0.62
0.81
0.84
0.66
0.30
-0.13
-0.51
-0.74
-0.76
-0.60
-0.29
0.11
0.53
0.90
1.13
1.15
0.97
0.66
0.37
0.21
0.25
0.45
0.69
0.86
0.90
0.85
0.75
0.65
0.54
0.38
0.14
-0.12
-0.33
-0.39
-0.24
0.08
0.46
0.76
0.88
0.75
0.42
-0.00
-0.36
-0.57
-0.59
-0.49
-0.40
-0.40
-0.50
-0.62
-0.63
-0.46
-0.14
0.23
0.52
0.66
0.62
0.46
0.22
-0.05
-0.31
-0.54
-0.71
-0.77
-0.71
-0.54
-0.32
-0.13
-0.02
0.01
-0.00
-0.01
0.02
0.10
0.20
0.27
0.27
0.21
0.11
0.00
-0.09
-0.17
-0.26
-0.34
-0.32
-0.15
0.20
0.68
1.17
1.52
1.66
1.58
1.33
1.02
0.71
0.48
0.34
0.28
0.31
0.38
0.41
0.33
0.10
-0.25
-0.60
-0.85
-0.92
-0.81
-0.57
-0.29
0.01
0.28
0.49
0.58
0.49
0.22
-0.20
-0.64
-0.98
-1.12
-1.04
-0.77
-0.37
0.09
0.53
0.90
1.12
1.18
1.07
0.84
0.58
0.35
0.17
0.01
-0.14
-0.30
-0.43
-0.49
-0.49
-0.46
-0.48
-0.64
-0.91
-1.22
-1.43
-1.45
-1.26
-0.97
-0.73
-0.67
-0.80
-1.05
-1.26
-1.31
-1.18
-0.94
-0.71
-0.53
-0.42
-0.29
-0.08
0.18
0.44
0.59
0.57
0.41
0.21
0.10
0.13
0.29
0.49
0.60
0.56
0.38
0.15
-0.02
-0.06
0.07
0.31
0.59
0.85
1.05
1.15
1.13
0.96
0.64
0.19
-0.26
-0.56
-0.59
-0.35
0.06
0.46
0.67
0.65
0.44
0.15
-0.11
-0.28
-0.37
-0.40
-0.39
-0.30
-0.12
0.13
0.40
0.60
0.68
0.61
0.44
0.26
0.13
0.07
0.03
-0.05
-0.23
-0.49
-0.71
-0.78
-0.63
-0.28
0.15
0.51
0.69
0.66
0.45
0.16
-0.15
-0.45
-0.72
-0.95
-1.08
-1.04
-0.80
-0.37
0.17
0.71
1.12
1.32
1.27
0.99
0.59
0.18
-0.10
-0.18
-0.08
0.14
0.38
0.58
0.73
0.90
1.13
1.40
1.65
1.76
1.68
1.41
1.00
0.53
0.09
-0.30
-0.58
-0.73
-0.74
-0.60
-0.35
-0.04
0.24
0.43
0.48
0.39
0.17
-0.17
-0.58
-0.99
-1.34
-1.55
-1.57
-1.39
-1.04
-0.62
-0.23
0.03
0.10
0.02
-0.14
-0.29
-0.35
-0.35
-0.34
-0.36
-0.44
-0.54
-0.57
-0.44
-0.15
0.23
0.60
0.82
0.85
0.70
0.45
0.17
-0.08
-0.32
-0.55
-0.74
-0.82
-0.74
-0.44
0.01
0.47
0.81
0.94
0.84
0.60
0.32
0.09
-0.03
-0.08
-0.09
-0.08
-0.09
-0.14
-0.24
-0.39
-0.57
-0.73
-0.80
-0.74
-0.53
-0.19
0.21
0.58
0.85
0.97
0.95
0.84
0.70
0.56
0.41
0.23
-0.01
-0.25
-0.39
-0.33
-0.04
0.41
0.87
1.14
1.12
0.83
0.39
-0.05
-0.35
-0.50
-0.52
-0.50
-0.49
-0.48
-0.45
-0.38
-0.28
-0.21
-0.21
-0.30
-0.44
-0.56
-0.58
-0.51
-0.40
-0.33
-0.38
-0.49
-0.61
-0.61
-0.44
-0.14
0.18
0.40
0.45
0.34
0.14
-0.03
-0.10
-0.07
0.03
0.12
0.18
0.18
0.18
0.18
0.21
0.23
0.23
0.22
0.23
0.29
0.42
0.58
0.69
0.66
0.46
0.14
-0.20
-0.43
-0.48
-0.39
-0.24
-0.13
-0.11
-0.19
-0.28
-0.30
-0.20
0.02
0.29
0.54
0.67
0.66
0.54
0.36
0.20
0.08
0.01
-0.07
-0.20
-0.36
-0.49
-0.52
-0.42
-0.21
-0.01
0.08
-0.00
-0.22
-0.46
-0.62
-0.62
-0.50
-0.33
-0.20
-0.10
-0.00
0.17
0.40
0.63
0.76
0.71
0.49
0.19
-0.09
-0.28
-0.40
-0.51
-0.65
-0.79
-0.86
-0.76
-0.49
-0.11
0.28
0.61
0.85
1.02
1.14
1.20
1.17
1.00
0.68
0.24
-0.23
-0.64
-0.92
-1.00
-0.90
-0.63
-0.27
0.12
0.49
0.77
0.92
0.91
0.71
0.35
-0.08
-0.47
-0.69
-0.67
-0.44
-0.13
0.08
0.10
-0.09
-0.38
-0.63
-0.72
-0.63
-0.45
-0.28
-0.18
-0.17
-0.19
-0.20
-0.14
-0.01
0.17
0.34
0.45
0.45
0.34
0.13
-0.14
-0.41
-0.68
-0.96
-1.27
-1.60
-1.88
-1.96
-1.73
-1.17
-0.40
0.32
0.74
0.73
0.37
-0.11
-0.46
-0.52
-0.30
0.08
0.44
0.69
0.83
0.93
1.02
1.11
1.14
1.07
0.87
0.57
0.23
-0.06
-0.23
-0.25
-0.12
0.10
0.30
0.41
0.40
0.31
0.21
0.18
0.23
0.31
0.35
0.29
0.15
-0.01
-0.14
-0.19
-0.13
-0.01
0.18
0.38
0.57
0.74
0.88
0.97
1.00
0.96
0.81
0.56
0.21
-0.17
-0.49
-0.69
-0.73
-0.63
-0.44
-0.24
-0.09
0.01
0.07
0.13
0.18
0.20
0.15
-0.00
-0.22
-0.42
-0.52
-0.47
-0.28
-0.03
0.19
0.34
0.43
0.47
0.49
0.48
0.43
0.35
0.25
0.17
0.13
0.12
0.08
-0.03
-0.20
-0.36
-0.44
-0.38
-0.24
-0.11
-0.08
-0.21
-0.45
-0.73
-0.92
-0.96
-0.81
-0.53
-0.17
0.14
0.33
0.35
0.19
-0.08
-0.35
-0.53
-0.58
-0.51
-0.36
-0.20
-0.08
-0.01
0.03
0.08
0.20
0.39
0.61
0.77
0.80
0.66
0.41
0.15
-0.01
-0.04
0.05
0.16
0.20
0.14
0.00
-0.14
-0.22
-0.19
-0.03
0.22
0.53
0.84
1.06
1.17
1.14
0.98
0.73
0.41
0.02
-0.41
-0.81
-1.11
-1.21
-1.11
-0.84
-0.52
-0.30
-0.26
-0.37
-0.52
-0.60
-0.50
-0.25
0.05
0.27
0.33
0.24
0.10
0.01
0.03
0.14
0.23
0.21
0.03
-0.26
-0.53
-0.66
-0.59
-0.35
-0.05
0.20
0.33
0.32
0.21
0.07
-0.02
0.00
0.18
0.48
0.82
1.09
1.20
1.11
0.86
0.52
0.19
-0.09
-0.31
-0.47
-0.57
-0.57
-0.45
-0.21
0.00
0.06
-0.14
-0.56
-1.01
-1.28
-1.23
-0.87
-0.36
0.10
0.37
0.43
0.40
0.36
0.38
0.42
0.39
0.23
-0.03
-0.30
-0.45
-0.44
-0.28
-0.05
0.15
0.27
0.28
0.21
0.08
-0.04
-0.13
-0.16
-0.14
-0.08
-0.05
-0.11
-0.25
-0.43
-0.49
-0.33
0.08
0.61
1.04
1.15
0.87
0.31
-0.30
-0.69
-0.74
-0.49
-0.14
0.10
0.13
-0.01
-0.15
-0.13
0.08
0.39
0.60
0.59
0.33
-0.04
-0.33
-0.39
-0.19
0.16
0.51
0.69
0.66
0.43
0.10
-0.25
-0.54
-0.69
-0.68
-0.54
-0.29
-0.03
0.17
0.22
0.10
-0.18
-0.52
-0.80
-0.91
-0.77
-0.40
0.07
0.51
0.80
0.89
0.83
0.69
0.55
0.43
0.32
0.16
-0.05
-0.29
-0.49
-0.57
-0.50
-0.28
0.02
0.29
0.41
0.34
0.12
-0.13
-0.26
-0.19
0.07
0.41
0.67
0.75
0.64
0.40
0.18
0.07
0.09
0.19
0.26
0.25
0.14
-0.03
-0.16
-0.19
-0.13
-0.02
0.05
0.02
-0.14
-0.39
-0.67
-0.90
-1.03
-1.03
-0.93
-0.75
-0.55
-0.38
-0.27
-0.20
-0.12
-0.03
0.09
0.20
0.25
0.25
0.20
0.16
0.18
0.25
0.35
0.44
0.44
0.34
0.14
-0.10
-0.31
-0.40
-0.34
-0.17
0.02
0.13
0.10
-0.08
-0.32
-0.50
-0.54
-0.39
-0.10
0.28
0.63
0.89
0.99
0.92
0.69
0.38
0.04
-0.25
-0.43
-0.49
-0.44
-0.34
-0.22
-0.11
0.00
0.11
0.21
0.28
0.26
0.14
-0.11
-0.45
-0.82
-1.14
-1.33
-1.33
-1.15
-0.84
-0.52
-0.27
-0.14
-0.11
-0.09
-0.00
0.17
0.40
0.59
0.69
0.69
0.65
0.60
0.56
0.46
0.27
0.01
-0.24
-0.37
-0.32
-0.13
0.10
0.23
0.22
0.09
-0.06
-0.15
-0.15
-0.10
-0.04
-0.04
-0.09
-0.18
-0.28
-0.35
-0.40
-0.42
-0.39
-0.31
-0.19
-0.04
0.12
0.24
0.34
0.39
0.41
0.37
0.30
0.19
0.11
0.07
0.09
0.14
0.17
0.14
0.08
0.04
0.09
0.25
0.48
0.65
0.64
0.38
-0.09
-0.61
-0.99
-1.08
-0.86
-0.42
0.07
0.47
0.73
0.86
0.96
1.08
1.19
1.23
1.11
0.80
0.36
-0.09
-0.44
-0.63
-0.65
-0.57
-0.48
-0.40
-0.33
-0.20
0.03
0.37
0.74
1.04
1.18
1.11
0.87
0.54
0.21
-0.02
-0.11
-0.06
0.09
0.27
0.41
0.45
0.39
0.26
0.11
-0.03
-0.13
-0.20
-0.26
-0.29
-0.30
-0.25
-0.18
-0.09
-0.04
-0.02
-0.02
-0.00
0.07
0.19
0.35
0.49
0.57
0.55
0.43
0.25
0.01
-0.26
-0.55
-0.85
-1.10
-1.22
-1.13
-0.81
-0.32
0.17
0.51
0.58
0.42
0.16
-0.03
-0.05
0.06
0.19
0.23
0.12
-0.11
-0.37
-0.59
-0.73
-0.77
-0.72
-0.60
-0.40
-0.20
-0.07
-0.08
-0.24
-0.49
-0.72
-0.81
-0.73
-0.51
-0.26
-0.07
0.00
-0.01
-0.04
-0.01
0.11
0.28
0.43
0.49
0.44
0.33
0.23
0.18
0.19
0.20
0.15
-0.03
-0.32
-0.66
-0.96
-1.10
-1.01
-0.70
-0.22
0.28
0.69
0.90
0.89
0.71
0.45
0.17
-0.05
-0.18
-0.18
-0.07
0.12
0.30
0.38
0.30
0.07
-0.21
-0.42
-0.43
-0.21
0.19
0.64
0.99
1.15
1.07
0.82
0.48
0.14
-0.14
-0.34
-0.45
-0.48
-0.40
-0.21
0.06
0.31
0.43
0.34
0.07
-0.26
-0.49
-0.52
-0.35
-0.10
0.06
0.06
-0.07
-0.25
-0.34
-0.29
-0.14
0.00
0.06
-0.00
-0.16
-0.34
-0.50
-0.60
-0.62
-0.56
-0.40
-0.15
0.14
0.42
0.63
0.72
0.68
0.56
0.37
0.18
-0.00
-0.15
-0.24
-0.27
-0.24
-0.16
-0.06
0.00
0.00
-0.06
-0.16
-0.25
-0.27
-0.19
-0.01
0.23
0.45
0.61
0.67
0.64
0.53
0.36
0.15
-0.09
-0.33
-0.54
-0.66
-0.67
-0.56
-0.37
-0.18
-0.07
-0.05
-0.13
-0.23
-0.30
-0.31
-0.26
-0.20
-0.14
-0.10
-0.04
0.05
0.17
0.30
0.38
0.35
0.23
0.07
-0.04
-0.03
0.14
0.45
0.80
1.08
1.22
1.17
0.96
0.66
0.31
-0.03
-0.32
-0.51
-0.57
-0.48
-0.26
0.02
0.27
0.43
0.45
0.33
0.10
-0.23
-0.59
-0.91
-1.11
-1.12
-0.93
-0.61
-0.25
0.06
0.28
0.36
0.31
0.11
-0.18
-0.50
-0.72
-0.73
-0.47
-0.00
0.52
0.93
1.09
0.98
0.65
0.19
-0.29
-0.69
-0.92
-0.88
-0.55
-0.00
0.61
1.05
1.12
0.78
0.12
-0.61
-1.18
-1.40
-1.27
-0.88
-0.39
0.06
0.42
0.64
0.72
0.67
0.48
0.20
-0.12
-0.39
-0.52
-0.54
-0.48
-0.45
-0.48
-0.57
-0.69
-0.78
-0.81
-0.79
-0.71
-0.57
-0.33
-0.01
0.36
0.68
0.85
0.84
0.68
0.48
0.36
0.39
0.53
0.70
0.83
0.84
0.77
0.63
0.51
0.44
0.44
0.47
0.50
0.48
0.42
0.32
0.21
0.12
0.02
-0.09
-0.24
-0.41
-0.57
-0.66
-0.67
-0.61
-0.53
-0.45
-0.38
-0.28
-0.13
0.06
0.23
0.32
0.26
0.07
-0.17
-0.36
-0.44
-0.39
-0.22
0.01
0.29
0.59
0.89
1.12
1.21
1.09
0.77
0.31
-0.18
-0.58
-0.83
-0.92
-0.88
-0.77
-0.66
-0.58
-0.56
-0.60
-0.67
-0.75
-0.76
-0.65
-0.41
-0.08
0.24
0.45
0.50
0.40
0.26
0.16
0.17
0.25
0.32
0.31
0.18
0.01
-0.10
-0.09
0.02
0.15
0.18
0.09
-0.06
-0.18
-0.16
0.02
0.30
0.57
0.73
0.72
0.56
0.31
0.05
-0.13
-0.20
-0.15
-0.01
0.14
0.25
0.25
0.14
-0.06
-0.28
-0.48
-0.60
-0.60
-0.46
-0.18
0.17
0.48
0.61
0.50
0.19
-0.18
-0.41
-0.41
-0.17
0.16
0.43
0.53
0.42
0.17
-0.15
-0.44
-0.66
-0.78
-0.79
-0.68
-0.44
-0.10
0.30
0.68
0.96
1.06
0.97
0.70
0.35
0.04
-0.15
-0.17
-0.10
-0.03
-0.06
-0.20
-0.39
-0.54
-0.57
-0.46
-0.27
-0.07
0.09
0.19
0.24
0.26
0.25
0.21
0.13
0.04
-0.04
-0.12
-0.18
-0.22
-0.22
-0.15
-0.01
0.18
0.37
0.52
0.60
0.65
0.70
0.74
0.75
0.65
0.42
0.10
-0.21
-0.40
-0.42
-0.28
-0.05
0.20
0.44
0.66
0.84
0.97
0.99
0.85
0.54
0.13
-0.29
-0.64
-0.89
-1.07
-1.22
-1.37
-1.47
-1.42
-1.16
-0.70
-0.16
0.29
0.50
0.44
0.16
-0.20
-0.52
-0.75
-0.87
-0.92
-0.88
-0.73
-0.45
-0.09
0.28
0.54
0.64
0.58
0.47
0.38
0.35
0.37
0.36
0.26
0.08
-0.14
-0.32
-0.44
-0.51
-0.56
-0.57
-0.49
-0.26
0.11
0.54
0.87
0.99
0.86
0.56
0.23
0.01
-0.04
0.03
0.15
0.25
0.33
0.39
0.47
0.52
0.50
0.35
0.10
-0.20
-0.46
-0.63
-0.72
-0.73
-0.71
-0.61
-0.41
-0.11
0.24
0.50
0.58
0.48
0.29
0.16
0.16
0.25
0.32
0.23
-0.02
-0.34
-0.57
-0.59
-0.38
-0.04
0.31
0.58
0.76
0.89
1.02
1.11
1.12
0.97
0.67
0.27
-0.11
-0.37
-0.49
-0.48
-0.42
-0.36
-0.32
-0.34
-0.43
-0.60
-0.81
-0.99
-1.04
-0.88
-0.54
-0.15
0.13
0.16
-0.07
-0.46
-0.84
-1.06
-1.03
-0.82
-0.53
-0.28
-0.13
-0.05
0.02
0.14
0.32
0.54
0.72
0.79
0.77
0.67
0.55
0.46
0.37
0.27
0.16
0.04
-0.04
-0.05
0.04
0.19
0.39
0.60
0.78
0.86
0.81
0.59
0.22
-0.17
-0.45
-0.49
-0.25
0.18
0.63
0.92
0.91
0.60
0.11
-0.39
-0.76
-0.91
-0.89
-0.79
-0.72
-0.74
-0.83
-0.91
-0.92
-0.85
-0.70
-0.54
-0.37
-0.19
0.03
0.30
0.57
0.77
0.84
0.75
0.54
0.31
0.15
0.12
0.19
0.31
0.42
0.48
0.49
0.46
0.39
0.27
0.08
-0.14
-0.37
-0.55
-0.69
-0.77
-0.82
-0.83
-0.78
-0.62
-0.35
-0.00
0.34
0.56
0.59
0.43
0.15
-0.14
-0.35
-0.44
-0.47
-0.51
-0.58
-0.68
-0.72
-0.64
-0.43
-0.16
0.08
0.21
0.28
0.38
0.60
0.92
1.21
1.35
1.24
0.95
0.60
0.33
0.19
0.10
-0.03
-0.28
-0.60
-0.86
-0.94
-0.79
-0.49
-0.17
0.02
0.06
-0.01
-0.07
-0.01
0.21
0.55
0.90
1.13
1.17
0.98
0.60
0.11
-0.40
-0.83
-1.10
-1.16
-0.97
-0.58
-0.06
0.46
0.86
1.08
1.09
0.95
0.71
0.41
0.09
-0.24
-0.55
-0.79
-0.89
-0.82
-0.58
-0.24
0.08
0.30
0.36
0.23
-0.02
-0.32
-0.52
-0.55
-0.36
-0.03
0.32
0.54
0.53
0.29
-0.05
-0.36
-0.54
-0.56
-0.47
-0.35
-0.25
-0.20
-0.15
-0.09
-0.04
-0.03
-0.11
-0.27
-0.46
-0.60
-0.65
-0.59
-0.47
-0.32
-0.14
0.06
0.28
0.46
0.53
0.42
0.13
-0.23
-0.56
-0.76
-0.82
-0.80
-0.78
-0.81
-0.87
-0.94
-1.03
-1.15
-1.33
-1.54
-1.69
-1.67
-1.39
-0.89
-0.27
0.32
0.80
1.14
1.39
1.63
1.88
2.15
2.36
2.45
2.36
2.08
1.68
1.28
1.00
0.93
1.06
1.24
1.25
0.93
0.24
-0.69
-1.60
-2.24
-2.47
-2.30
-1.87
-1.35
-0.88
-0.53
-0.30
-0.14
-0.01
0.10
0.23
0.35
0.44
0.46
0.36
0.11
-0.28
-0.75
-1.20
-1.52
-1.64
-1.52
-1.21
-0.80
-0.39
-0.09
0.07
0.09
0.03
-0.05
-0.09
-0.08
0.01
0.18
0.40
0.63
0.80
0.84
0.76
0.63
0.55
0.58
0.70
0.80
0.77
0.56
0.21
-0.13
-0.35
-0.42
-0.37
-0.31
-0.28
-0.28
-0.25
-0.17
-0.07
0.03
0.10
0.18
0.31
0.49
0.66
0.70
0.53
0.19
-0.22
-0.55
-0.69
-0.65
-0.52
-0.43
-0.44
-0.58
-0.81
-1.08
-1.35
-1.60
-1.82
-2.00
-2.14
-2.19
-2.10
-1.82
-1.31
-0.63
0.13
0.86
1.43
1.80
2.00
2.12
2.27
2.50
2.81
3.13
3.38
3.51
3.47
3.26
2.93
2.51
2.06
1.63
1.29
1.11
1.13
1.37
1.77
2.21
2.49
2.49
2.11
1.43
0.62
-0.08
-0.47
-0.47
-0.16
0.23
0.45
0.36
-0.07
-0.68
-1.28
-1.66
-1.76
-1.62
-1.41
-1.26
-1.26
-1.41
-1.63
-1.83
-2.00
-2.16
-2.39
-2.69
-3.00
-3.19
-3.17
-2.88
-2.40
-1.82
-1.27
-0.80
-0.44
-0.18
-0.03
-0.01
-0.15
-0.39
-0.66
-0.90
-1.06
-1.20
-1.37
-1.62
-1.93
-2.19
-2.30
-2.24
-2.10
-2.05
-2.24
-2.71
-3.38
-4.08
-4.62
-4.90
-4.94
-4.86
-4.81
-4.94
-5.35
-6.06
-7.02
-8.11
-9.19
-10.12
-10.77
-11.09
-11.16
-11.11
-11.23
-11.80
-12.99
-14.69
-16.37
-17.20
-16.35
-13.35
-8.44
-2.46
3.43
8.29
11.69
13.75
14.89
15.58
16.09
16.55
17.06
17.76
18.82
20.25
21.90
23.43
24.53
25.04
24.96
24.49
23.82
23.17
22.72
22.68
23.18
24.22
25.54
26.57
26.64
25.13
21.78
16.79
10.73
4.34
-1.69
-6.90
-11.10
-14.22
-16.29
-17.32
-17.39
-16.70
-15.55
-14.26
-13.11
-12.25
-11.65
-11.19
-10.74
-10.20
-9.52
-8.76
-8.00
-7.34
-6.87
-6.63
-6.58
-6.62
-6.62
-6.47
-6.15
-5.68
-5.13
-4.60
-4.17
-3.92
-3.84
-3.91
-4.05
-4.13
-4.05
-3.77
-3.31
-2.79
-2.40
-2.26
-2.45
-2.89
-3.43
-3.87
-4.06
-3.98
-3.71
-3.43
-3.32
-3.51
-3.95
-4.51
-4.98
-5.21
-5.17
-4.93
-4.68
-4.57
-4.73
-5.16
-5.85
-6.72
-7.59
-8.16
-7.99
-6.66
-4.00
-0.27
3.87
7.58
10.15
11.35
11.39
10.78
10.01
9.38
8.90
8.47
8.01
7.51
7.07
6.75
6.54
6.39
6.22
5.99
5.69
5.34
4.94
4.52
4.08
3.64
3.17
2.63
1.99
1.27
0.56
0.01
-0.23
-0.13
0.25
0.69
0.99
1.04
0.88
0.73
0.83
1.37
2.33
3.51
4.61
5.35
5.62
5.47
5.13
4.88
4.94
5.42
6.28
7.39
8.48
9.20
9.19
8.15
6.04
3.09
-0.19
-3.22
-5.51
-6.85
-7.32
-7.24
-6.90
-6.49
-6.05
-5.54
-4.95
-4.33
-3.84
-3.57
-3.55
-3.63
-3.66
-3.46
-3.01
-2.43
-1.94
-1.70
-1.78
-2.07
-2.43
-2.69
-2.81
-2.87
-2.95
-3.12
-3.35
-3.52
-3.50
-3.21
-2.68
-2.04
-1.44
-0.98
-0.74
-0.67
-0.73
-0.89
-1.11
-1.38
-1.65
-1.85
-1.92
-1.82
-1.55
-1.18
-0.82
-0.55
-0.42
-0.41
-0.48
-0.56
-0.57
-0.48
-0.30
-0.09
0.10
0.23
0.33
0.43
0.58
0.79
1.01
1.18
1.28
1.29
1.26
1.23
1.24
1.30
1.35
1.35
1.25
1.03
0.72
0.39
0.09
-0.13
-0.24
-0.27
-0.25
-0.20
-0.15
-0.12
-0.13
-0.24
-0.47
-0.78
-1.06
-1.18
-1.06
-0.70
-0.22
0.24
0.51
0.56
0.42
0.22
0.06
0.02
0.09
0.23
0.38
0.49
0.57
0.61
0.59
0.49
0.30
0.04
-0.23
-0.41
-0.43
-0.31
-0.11
0.06
0.08
-0.08
-0.37
-0.69
-0.93
-1.02
-0.95
-0.78
-0.58
-0.40
-0.23
-0.03
0.24
0.55
0.82
0.93
0.80
0.47
0.10
-0.14
-0.16
0.00
0.23
0.39
0.40
0.32
0.20
0.13
0.12
0.14
0.12
0.04
-0.09
-0.28
-0.49
-0.67
-0.80
-0.86
-0.82
-0.73
-0.60
-0.48
-0.36
-0.24
-0.10
0.04
0.15
0.21
0.16
0.01
-0.23
-0.50
-0.72
-0.79
-0.68
-0.41
-0.07
0.25
0.48
0.61
0.66
0.65
0.56
0.33
-0.03
-0.45
-0.80
-0.95
-0.87
-0.62
-0.32
-0.10
0.04
0.16
0.32
0.56
0.84
1.05
1.12
1.00
0.72
0.35
-0.01
-0.26
-0.36
-0.32
-0.20
-0.07
-0.01
-0.02
-0.12
-0.25
-0.38
-0.46
-0.47
-0.40
-0.28
-0.18
-0.15
-0.25
-0.45
-0.69
-0.89
-0.99
-1.03
-1.04
-1.06
-1.05
-0.93
-0.63
-0.15
0.37
0.76
0.89
0.72
0.32
-0.15
-0.55
-0.79
-0.85
-0.75
-0.54
-0.25
0.04
0.28
0.42
0.47
0.49
0.50
0.55
0.60
0.61
0.55
0.43
0.30
0.27
0.36
0.55
0.76
0.86
0.78
0.56
0.32
0.18
0.21
0.37
0.50
0.47
0.24
-0.08
-0.31
-0.28
0.03
0.48
0.87
1.01
0.86
0.50
0.09
-0.27
-0.53
-0.72
-0.86
-0.96
-0.99
-0.92
-0.77
-0.58
-0.40
-0.30
-0.30
-0.39
-0.53
-0.66
-0.67
-0.52
-0.18
0.26
0.66
0.87
0.82
0.56
0.28
0.12
0.19
0.42
0.68
0.82
0.78
0.58
0.32
0.10
-0.03
-0.08
-0.09
-0.11
-0.17
-0.26
-0.36
-0.43
-0.44
-0.37
-0.28
-0.22
-0.21
-0.25
-0.29
-0.28
-0.20
-0.07
0.06
0.14
0.15
0.09
-0.00
-0.09
-0.15
-0.14
-0.07
0.02
0.04
-0.04
-0.21
-0.41
-0.51
-0.46
-0.28
-0.07
0.06
0.08
0.03
-0.02
-0.04
-0.04
-0.09
-0.24
-0.43
-0.58
-0.62
-0.54
-0.37
-0.22
-0.15
-0.19
-0.31
-0.49
-0.67
-0.82
-0.89
-0.86
-0.70
-0.45
-0.17
0.06
0.19
0.20
0.11
-0.03
-0.16
-0.27
-0.35
-0.45
-0.57
-0.70
-0.81
-0.83
-0.74
-0.54
-0.30
-0.08
0.08
0.19
0.29
0.40
0.52
0.58
0.50
0.27
-0.06
-0.40
-0.64
-0.69
-0.53
-0.22
0.16
0.54
0.89
1.24
1.56
1.84
1.98
1.89
1.55
0.99
0.38
-0.10
-0.32
-0.27
-0.09
0.08
0.12
0.02
-0.11
-0.17
-0.11
0.06
0.25
0.40
0.50
0.59
0.74
0.95
1.13
1.19
1.05
0.74
0.36
0.07
-0.03
0.12
0.47
0.91
1.28
1.48
1.46
1.24
0.91
0.56
0.28
0.10
0.01
-0.03
-0.04
-0.05
-0.07
-0.13
-0.24
-0.39
-0.51
-0.53
-0.38
-0.07
0.31
0.63
0.78
0.71
0.46
0.12
-0.20
-0.46
-0.62
-0.66
-0.55
-0.32
0.01
0.31
0.50
0.50
0.33
0.07
-0.18
-0.39
-0.52
-0.61
-0.68
-0.73
-0.73
-0.69
-0.60
-0.49
-0.39
-0.31
-0.21
-0.09
0.06
0.18
0.23
0.17
0.02
-0.15
-0.29
-0.36
-0.35
-0.31
-0.28
-0.26
-0.24
-0.22
-0.18
-0.15
-0.16
-0.20
-0.25
-0.23
-0.13
0.03
0.21
0.36
0.47
0.56
0.63
0.67
0.61
0.41
0.08
-0.26
-0.50
-0.53
-0.38
-0.16
0.00
0.05
0.04
0.06
0.19
0.40
0.61
0.68
0.52
0.17
-0.31
-0.77
-1.09
-1.19
-1.07
-0.77
-0.38
-0.01
0.23
0.28
0.16
-0.05
-0.26
-0.40
-0.42
-0.37
-0.32
-0.31
-0.33
-0.36
-0.34
-0.24
-0.08
0.09
0.22
0.27
0.25
0.17
0.05
-0.10
-0.24
-0.34
-0.33
-0.19
0.02
0.20
0.26
0.15
-0.08
-0.31
-0.46
-0.50
-0.48
-0.48
-0.54
-0.61
-0.59
-0.41
-0.11
0.24
0.49
0.56
0.44
0.21
-0.01
-0.10
-0.01
0.22
0.48
0.65
0.63
0.42
0.08
-0.26
-0.49
-0.59
-0.60
-0.61
-0.68
-0.79
-0.85
-0.79
-0.59
-0.31
-0.06
0.06
0.00
-0.22
-0.54
-0.86
-1.11
-1.19
-1.09
-0.84
-0.54
-0.32
-0.30
-0.48
-0.79
-1.09
-1.26
-1.25
-1.10
-0.88
-0.66
-0.47
-0.27
-0.00
0.32
0.64
0.86
0.87
0.69
0.41
0.17
0.13
0.33
0.66
0.93
0.94
0.61
0.03
-0.54
-0.84
-0.69
-0.14
0.60
1.25
1.59
1.57
1.32
1.02
0.86
0.92
1.13
1.37
1.51
1.46
1.22
0.86
0.49
0.21
0.11
0.22
0.50
0.84
1.12
1.25
1.18
0.94
0.63
0.36
0.21
0.20
0.30
0.42
0.49
0.46
0.35
0.22
0.12
0.10
0.14
0.17
0.15
0.07
0.01
0.04
0.24
0.56
0.89
1.09
1.04
0.73
0.28
-0.18
-0.49
-0.63
-0.62
-0.52
-0.38
-0.19
0.05
0.35
0.60
0.70
0.55
0.13
-0.45
-1.00
-1.35
-1.41
-1.22
-0.88
-0.51
-0.18
0.08
0.25
0.28
0.17
-0.09
-0.42
-0.72
-0.91
-0.96
-0.88
-0.76
-0.64
-0.55
-0.52
-0.56
-0.65
-0.78
-0.92
-0.99
-0.97
-0.86
-0.69
-0.52
-0.38
-0.27
-0.18
-0.12
-0.09
-0.11
-0.14
-0.14
-0.05
0.15
0.40
0.61
0.69
0.60
0.36
0.07
-0.17
-0.28
-0.25
-0.10
0.11
0.29
0.43
0.51
0.57
0.64
0.72
0.77
0.74
0.61
0.41
0.21
0.08
0.12
0.33
0.65
1.00
1.25
1.31
1.16
0.86
0.50
0.21
0.06
0.07
0.17
0.28
0.33
0.28
0.14
-0.05
-0.25
-0.42
-0.51
-0.49
-0.37
-0.21
-0.09
-0.09
-0.23
-0.43
-0.54
-0.48
-0.24
0.08
0.34
0.46
0.41
0.29
0.15
0.04
-0.10
-0.29
-0.52
-0.73
-0.81
-0.73
-0.50
-0.22
0.01
0.12
0.16
0.18
0.24
0.38
0.55
0.69
0.76
0.71
0.51
0.20
-0.18
-0.56
-0.85
-1.01
-1.02
-0.95
-0.83
-0.70
-0.55
-0.34
-0.06
0.26
0.53
0.69
0.69
0.56
0.37
0.22
0.19
0.26
0.37
0.38
0.23
-0.11
-0.54
-0.91
-1.06
-0.94
-0.63
-0.25
0.05
0.22
0.26
0.24
0.22
0.18
0.08
-0.11
-0.38
-0.64
-0.78
-0.72
-0.46
-0.09
0.24
0.40
0.34
0.11
-0.18
-0.39
-0.45
-0.38
-0.27
-0.20
-0.19
-0.21
-0.17
-0.03
0.17
0.32
0.35
0.25
0.09
0.00
0.07
0.27
0.51
0.65
0.60
0.39
0.11
-0.12
-0.25
-0.28
-0.28
-0.30
-0.35
-0.40
-0.40
-0.36
-0.31
-0.31
-0.40
-0.54
-0.66
-0.66
-0.48
-0.12
0.32
0.70
0.93
0.95
0.82
0.64
0.55
0.58
0.70
0.79
0.76
0.58
0.29
0.02
-0.13
-0.12
-0.00
0.11
0.13
0.03
-0.19
-0.43
-0.58
-0.59
-0.42
-0.14
0.15
0.32
0.34
0.21
0.03
-0.12
-0.21
-0.25
-0.32
-0.46
-0.65
-0.85
-1.00
-1.06
-1.03
-0.93
-0.77
-0.57
-0.34
-0.12
0.06
0.16
0.15
0.06
-0.08
-0.23
-0.38
-0.52
-0.65
-0.79
-0.93
-1.04
-1.10
-1.08
-0.97
-0.77
-0.50
-0.20
0.09
0.32
0.47
0.50
0.43
0.29
0.10
-0.06
-0.17
-0.21
-0.21
-0.19
-0.16
-0.10
0.04
0.28
0.57
0.81
0.92
0.88
0.74
0.64
0.66
0.79
0.95
1.00
0.89
0.66
0.40
0.20
0.05
-0.09
-0.26
-0.45
-0.56
-0.48
-0.18
0.24
0.62
0.79
0.71
0.44
0.16
0.02
0.09
0.32
0.57
0.69
0.61
0.35
0.04
-0.19
-0.24
-0.14
0.04
0.17
0.18
0.07
-0.08
-0.17
-0.14
-0.02
0.13
0.21
0.19
0.12
0.10
0.23
0.51
0.81
0.94
0.74
0.21
-0.45
-0.97
-1.08
-0.74
-0.10
0.53
0.90
0.91
0.65
0.31
0.04
-0.12
-0.20
-0.29
-0.41
-0.55
-0.65
-0.71
-0.72
-0.71
-0.68
-0.63
-0.52
-0.34
-0.10
0.18
0.46
0.74
0.95
1.07
1.02
0.79
0.43
0.03
-0.28
-0.43
-0.41
-0.30
-0.21
-0.22
-0.35
-0.53
-0.66
-0.68
-0.55
-0.34
-0.12
0.04
0.14
0.17
0.19
0.21
0.22
0.18
0.07
-0.12
-0.34
-0.54
-0.66
-0.70
-0.67
-0.63
-0.61
-0.64
-0.70
-0.77
-0.83
-0.86
-0.85
-0.81
-0.73
-0.60
-0.38
-0.05
0.42
1.00
1.62
2.20
2.67
3.02
3.29
3.56
3.87
4.26
4.69
5.08
5.34
5.40
5.21
4.81
4.24
3.59
2.90
2.20
1.52
0.88
0.32
-0.12
-0.41
-0.61
-0.80
-1.10
-1.54
-2.07
-2.55
-2.85
-2.91
-2.78
-2.59
-2.45
-2.44
-2.50
-2.55
-2.50
-2.34
-2.12
-1.91
-1.78
-1.72
-1.68
-1.60
-1.44
-1.18
-0.85
-0.45
-0.01
0.41
0.69
0.75
0.51
0.03
-0.52
-0.94
-1.10
-1.00
-0.75
-0.54
-0.48
-0.56
-0.72
-0.86
-0.94
-0.95
-0.93
-0.89
-0.80
-0.65
-0.46
-0.28
-0.16
-0.10
-0.06
0.01
0.12
0.23
0.29
0.29
0.21
0.11
0.02
-0.05
-0.12
-0.17
-0.20
-0.17
-0.08
0.03
0.11
0.13
0.11
0.12
0.20
0.34
0.46
0.47
0.36
0.16
-0.04
-0.16
-0.18
-0.13
-0.08
-0.08
-0.15
-0.28
-0.46
-0.66
-0.87
-1.05
-1.13
-1.05
-0.79
-0.40
0.05
0.44
0.67
0.71
0.56
0.28
-0.05
-0.33
-0.52
-0.60
-0.62
-0.60
-0.57
-0.50
-0.36
-0.13
0.19
0.51
0.77
0.91
0.93
0.86
0.76
0.65
0.51
0.33
0.11
-0.09
-0.20
-0.17
0.01
0.27
0.51
0.64
0.64
0.54
0.40
0.25
0.10
-0.04
-0.15
-0.19
-0.11
0.10
0.37
0.59
0.66
0.51
0.18
-0.18
-0.43
-0.46
-0.28
-0.01
0.22
0.27
0.11
-0.19
-0.50
-0.70
-0.70
-0.50
-0.18
0.18
0.48
0.67
0.68
0.50
0.15
-0.31
-0.77
-1.13
-1.30
-1.26
-1.05
-0.74
-0.42
-0.17
-0.02
0.04
0.04
0.04
0.07
0.13
0.19
0.18
0.08
-0.07
-0.19
-0.18
0.02
0.34
0.65
0.78
0.65
0.30
-0.08
-0.31
-0.29
-0.05
0.27
0.54
0.67
0.66
0.57
0.46
0.32
0.16
-0.02
-0.20
-0.30
-0.29
-0.20
-0.11
-0.10
-0.22
-0.39
-0.52
-0.50
-0.31
-0.02
0.26
0.42
0.41
0.26
0.07
-0.06
-0.08
-0.01
0.09
0.12
0.02
-0.23
-0.59
-0.95
-1.21
-1.27
-1.10
-0.75
-0.30
0.12
0.41
0.53
0.47
0.28
0.03
-0.20
-0.35
-0.40
-0.35
-0.23
-0.11
0.01
0.08
0.13
0.18
0.25
0.34
0.46
0.60
0.75
0.91
1.06
1.14
1.11
0.94
0.62
0.21
-0.21
-0.53
-0.67
-0.63
-0.43
-0.17
0.05
0.17
0.13
-0.02
-0.23
-0.41
-0.46
-0.36
-0.13
0.15
0.39
0.49
0.44
0.27
0.03
-0.19
-0.36
-0.45
-0.48
-0.46
-0.37
-0.25
-0.11
-0.00
0.02
-0.07
-0.27
-0.53
-0.73
-0.77
-0.59
-0.22
0.26
0.69
0.94
0.98
0.83
0.59
0.37
0.26
0.28
0.38
0.49
0.53
0.45
0.26
-0.01
-0.28
-0.51
-0.63
-0.60
-0.40
-0.05
0.36
0.74
0.99
1.06
0.94
0.69
0.36
0.01
-0.33
-0.65
-0.92
-1.09
-1.14
-1.05
-0.86
-0.60
-0.31
-0.01
0.28
0.51
0.63
0.58
0.38
0.09
-0.18
-0.35
-0.40
-0.36
-0.32
-0.34
-0.40
-0.48
-0.51
-0.50
-0.45
-0.39
-0.32
-0.22
-0.04
0.24
0.57
0.85
0.98
0.89
0.59
0.20
-0.16
-0.38
-0.42
-0.31
-0.15
-0.02
0.04
0.03
0.01
0.04
0.13
0.28
0.43
0.55
0.64
0.70
0.76
0.76
0.66
0.38
-0.08
-0.63
-1.09
-1.30
-1.19
-0.82
-0.37
-0.01
0.15
0.12
0.00
-0.10
-0.11
-0.06
0.00
0.02
-0.01
-0.07
-0.08
-0.01
0.14
0.32
0.47
0.53
0.48
0.37
0.24
0.14
0.09
0.08
0.10
0.11
0.09
0.06
0.06
0.12
0.28
0.50
0.73
0.87
0.85
0.65
0.33
-0.02
-0.32
-0.50
-0.57
-0.58
-0.58
-0.62
-0.71
-0.81
-0.86
-0.79
-0.63
-0.45
-0.39
-0.51
-0.80
-1.12
-1.27
-1.11
-0.64
0.02
0.66
1.13
1.36
1.39
1.25
1.00
0.68
0.31
-0.04
-0.29
-0.39
-0.35
-0.24
-0.16
-0.16
-0.26
-0.43
-0.62
-0.77
-0.85
-0.85
-0.77
-0.60
-0.38
-0.15
0.06
0.26
0.45
0.65
0.86
1.04
1.11
1.02
0.76
0.40
0.08
-0.08
0.02
0.35
0.80
1.17
1.31
1.16
0.79
0.35
-0.02
-0.24
-0.31
-0.29
-0.24
-0.18
-0.08
0.07
0.25
0.39
0.44
0.34
0.17
0.00
-0.07
-0.02
0.10
0.18
0.12
-0.13
-0.53
-0.96
-1.29
-1.42
-1.33
-1.06
-0.72
-0.39
-0.15
-0.04
-0.02
-0.02
0.01
0.12
0.29
0.43
0.48
0.37
0.16
-0.07
-0.22
-0.26
-0.21
-0.16
-0.20
-0.32
-0.45
-0.50
-0.45
-0.29
-0.09
0.10
0.27
0.42
0.58
0.71
0.77
0.69
0.50
0.22
-0.06
-0.29
-0.44
-0.52
-0.54
-0.50
-0.40
-0.24
-0.04
0.14
0.24
0.22
0.11
-0.04
-0.17
-0.26
-0.34
-0.42
-0.51
-0.54
-0.44
-0.15
0.25
0.62
0.80
0.70
0.38
0.01
-0.26
-0.33
-0.19
0.07
0.35
0.58
0.73
0.76
0.68
0.50
0.30
0.18
0.22
0.43
0.73
0.99
1.09
0.96
0.66
0.26
-0.17
-0.55
-0.84
-1.02
-1.07
-0.99
-0.78
-0.50
-0.22
0.01
0.13
0.13
-0.01
-0.24
-0.50
-0.69
-0.74
-0.61
-0.34
-0.06
0.12
0.12
-0.04
-0.28
-0.47
-0.50
-0.35
-0.05
0.31
0.62
0.80
0.81
0.69
0.51
0.35
0.26
0.25
0.32
0.40
0.47
0.49
0.44
0.30
0.05
-0.28
-0.65
-0.92
-1.00
-0.81
-0.42
0.03
0.37
0.46
0.30
-0.03
-0.39
-0.65
-0.76
-0.72
-0.55
-0.32
-0.06
0.14
0.23
0.18
0.03
-0.15
-0.24
-0.20
-0.05
0.10
0.13
-0.01
-0.28
-0.56
-0.73
-0.71
-0.52
-0.22
0.11
0.40
0.59
0.65
0.57
0.36
0.10
-0.12
-0.20
-0.07
0.25
0.66
1.04
1.27
1.28
1.13
0.91
0.74
0.68
0.73
0.80
0.80
0.67
0.43
0.16
-0.06
-0.20
-0.28
-0.37
-0.48
-0.62
-0.71
-0.71
-0.57
-0.35
-0.12
0.05
0.12
0.08
-0.04
-0.20
-0.36
-0.48
-0.53
-0.49
-0.37
-0.19
-0.02
0.12
0.19
0.19
0.16
0.14
0.14
0.13
0.06
-0.09
-0.33
-0.58
-0.74
-0.74
-0.54
-0.22
0.11
0.32
0.35
0.23
0.07
-0.04
-0.07
-0.04
-0.02
-0.07
-0.20
-0.39
-0.55
-0.64
-0.59
-0.41
-0.09
0.28
0.61
0.79
0.74
0.47
0.07
-0.36
-0.70
-0.89
-0.94
-0.86
-0.66
-0.37
0.02
0.45
0.85
1.16
1.34
1.39
1.32
1.14
0.88
0.58
0.31
0.13
0.09
0.18
0.34
0.47
0.51
0.43
0.26
0.05
-0.14
-0.31
-0.44
-0.55
-0.65
-0.73
-0.80
-0.88
-0.96
-1.01
-1.00
-0.90
-0.69
-0.40
-0.06
0.27
0.51
0.62
0.57
0.35
0.04
-0.26
-0.46
-0.47
-0.31
-0.03
0.24
0.39
0.38
0.21
-0.03
-0.26
-0.40
-0.45
-0.45
-0.40
-0.31
-0.15
0.09
0.37
0.64
0.78
0.74
0.51
0.15
-0.23
-0.53
-0.67
-0.65
-0.47
-0.21
0.06
0.27
0.34
0.24
0.01
-0.27
-0.50
-0.60
-0.54
-0.32
0.00
0.35
0.66
0.86
0.87
0.68
0.32
-0.13
-0.51
-0.70
-0.66
-0.42
-0.09
0.18
0.31
0.28
0.12
-0.09
-0.24
-0.27
-0.13
0.13
0.43
0.65
0.70
0.58
0.36
0.18
0.10
0.11
0.10
-0.06
-0.38
-0.76
-1.01
-1.00
-0.73
-0.31
0.09
0.34
0.42
0.37
0.27
0.15
-0.00
-0.20
-0.42
-0.59
-0.61
-0.45
-0.16
0.17
0.40
0.50
0.46
0.37
0.31
0.32
0.41
0.53
0.62
0.63
0.55
0.41
0.26
0.16
0.13
0.16
0.19
0.16
0.06
-0.10
-0.27
-0.38
-0.43
-0.43
-0.45
-0.55
-0.70
-0.83
-0.85
-0.68
-0.36
0.03
0.37
0.57
0.63
0.60
0.53
0.48
0.45
0.42
0.38
0.29
0.16
0.00
-0.17
-0.34
-0.47
-0.52
-0.50
-0.44
-0.37
-0.36
-0.43
-0.54
-0.69
-0.84
-0.99
-1.15
-1.26
-1.29
-1.21
-1.02
-0.79
-0.57
-0.40
-0.23
-0.02
0.26
0.54
0.72
0.69
0.46
0.15
-0.10
-0.15
0.02
0.31
0.58
0.70
0.62
0.35
-0.01
-0.40
-0.73
-0.99
-1.18
-1.30
-1.37
-1.37
-1.32
-1.20
-1.05
-0.90
-0.80
-0.76
-0.79
-0.84
-0.88
-0.88
-0.82
-0.70
-0.51
-0.29
-0.08
0.10
0.26
0.43
0.67
1.00
1.35
1.57
1.53
1.18
0.59
-0.03
-0.49
-0.63
-0.44
0.01
0.58
1.10
1.48
1.64
1.59
1.37
1.06
0.79
0.66
0.77
1.08
1.50
1.83
1.94
1.73
1.26
0.66
0.13
-0.17
-0.19
0.02
0.31
0.52
0.55
0.36
-0.01
-0.51
-1.06
-1.56
-1.91
-2.06
-1.99
-1.73
-1.38
-1.05
-0.82
-0.71
-0.69
-0.65
-0.55
-0.37
-0.14
0.07
0.19
0.22
0.18
0.10
0.03
-0.03
-0.11
-0.25
-0.45
-0.69
-0.88
-0.93
-0.76
-0.39
0.07
0.46
0.62
0.49
0.14
-0.27
-0.53
-0.49
-0.11
0.51
1.21
1.80
2.15
2.23
2.11
1.89
1.69
1.60
1.64
1.74
1.83
1.82
1.70
1.50
1.31
1.15
1.06
1.00
0.94
0.91
0.92
0.99
1.12
1.25
1.27
1.16
0.91
0.60
0.34
0.23
0.31
0.52
0.79
1.01
1.11
1.11
1.08
1.08
1.12
1.17
1.15
1.01
0.80
0.66
0.71
1.03
1.56
2.15
2.64
2.91
2.93
2.73
2.39
1.94
1.42
0.81
0.15
-0.52
-1.13
-1.68
-2.18
-2.67
-3.16
-3.61
-3.92
-3.99
-3.79
-3.38
-2.92
-2.56
-2.43
-2.51
-2.73
-2.94
-3.03
-2.93
-2.65
-2.27
-1.86
-1.54
-1.36
-1.36
-1.49
-1.65
-1.75
-1.70
-1.49
-1.15
-0.76
-0.41
-0.15
-0.02
0.01
0.02
0.07
0.20
0.38
0.56
0.64
0.60
0.46
0.30
0.22
0.25
0.37
0.50
0.56
0.55
0.50
0.50
0.58
0.74
0.93
1.07
1.11
1.03
0.88
0.70
0.56
0.51
0.55
0.68
0.86
1.02
1.11
1.08
0.93
0.67
0.33
-0.02
-0.32
-0.52
-0.60
-0.58
-0.52
-0.51
-0.59
-0.81
-1.12
-1.43
-1.64
-1.69
-1.56
-1.31
-1.01
-0.71
-0.46
-0.27
-0.16
-0.16
-0.29
-0.53
-0.82
-1.07
-1.19
-1.18
-1.05
-0.90
-0.79
-0.77
-0.81
-0.84
-0.81
-0.63
-0.24
0.35
1.07
1.80
2.38
2.69
2.73
2.57
2.36
2.18
2.07
1.97
1.83
1.70
1.65
1.79
2.11
2.49
2.70
2.59
2.13
1.49
0.91
0.56
0.49
0.56
0.60
0.49
0.24
-0.06
-0.30
-0.46
-0.55
-0.63
-0.71
-0.80
-0.85
-0.88
-0.95
-1.09
-1.29
-1.46
-1.48
-1.27
-0.84
-0.32
0.08
0.22
0.02
-0.44
-1.04
-1.59
-1.95
-2.05
-1.86
-1.45
-0.94
-0.49
-0.21
-0.12
-0.14
-0.15
-0.07
0.15
0.41
0.60
0.63
0.49
0.26
0.05
-0.07
-0.11
-0.11
-0.14
-0.23
-0.34
-0.41
-0.37
-0.25
-0.08
0.06
0.15
0.22
0.31
0.45
0.60
0.69
0.60
0.32
-0.10
-0.53
-0.84
-0.97
-0.89
-0.69
-0.41
-0.13
0.11
0.30
0.43
0.48
0.45
0.35
0.20
0.03
-0.11
-0.19
-0.18
-0.10
0.02
0.11
0.13
0.08
0.00
-0.04
-0.02
0.05
0.13
0.17
0.16
0.12
0.10
0.13
0.21
0.32
0.41
0.42
0.35
0.19
-0.00
-0.15
-0.18
-0.08
0.09
0.25
0.28
0.14
-0.12
-0.39
-0.54
-0.50
-0.29
0.01
0.28
0.41
0.35
0.11
-0.26
-0.67
-1.00
-1.13
-1.04
-0.73
-0.31
0.12
0.45
0.62
0.60
0.41
0.11
-0.21
-0.42
-0.46
-0.29
0.02
0.37
0.63
0.73
0.70
0.58
0.45
0.37
0.34
0.33
0.27
0.17
0.04
-0.07
-0.08
0.07
0.39
0.80
1.17
1.35
1.24
0.86
0.35
-0.07
-0.24
-0.12
0.15
0.36
0.34
0.04
-0.46
-1.00
-1.45
-1.74
-1.87
-1.86
-1.73
-1.47
-1.10
-0.69
-0.34
-0.14
-0.15
-0.31
-0.55
-0.71
-0.71
-0.53
-0.19
0.22
0.61
0.91
1.08
1.11
0.97
0.64
0.16
-0.36
-0.80
-1.03
-1.00
-0.73
-0.36
-0.01
0.20
0.23
0.11
-0.09
-0.31
-0.45
-0.46
-0.33
-0.12
0.05
0.03
-0.26
-0.78
-1.38
-1.87
-2.11
-2.07
-1.83
-1.50
-1.21
-1.01
-0.89
-0.82
-0.72
-0.56
-0.30
0.09
0.60
1.16
1.69
2.03
2.11
1.92
1.56
1.18
0.91
0.74
0.59
0.35
-0.03
-0.43
-0.63
-0.46
0.08
0.85
1.56
1.97
1.99
1.67
1.18
0.65
0.15
-0.32
-0.72
-0.96
-0.97
-0.70
-0.24
0.26
0.63
0.80
0.83
0.85
0.94
1.09
1.21
1.19
1.01
0.75
0.54
0.46
0.48
0.50
0.38
0.10
-0.26
-0.57
-0.70
-0.61
-0.39
-0.17
-0.09
-0.19
-0.42
-0.67
-0.81
-0.78
-0.60
-0.28
0.12
0.56
0.97
1.26
1.34
1.15
0.74
0.23
-0.20
-0.42
-0.42
-0.26
-0.09
0.01
0.03
0.05
0.14
0.31
0.51
0.64
0.67
0.61
0.51
0.42
0.37
0.34
0.32
0.32
0.33
0.32
0.21
-0.08
-0.56
-1.11
-1.58
-1.80
-1.71
-1.41
-1.06
-0.82
-0.75
-0.80
-0.86
-0.88
-0.84
-0.80
-0.79
-0.83
-0.86
-0.85
-0.77
-0.65
-0.54
-0.46
-0.44
-0.49
-0.63
-0.84
-1.12
-1.37
-1.48
-1.36
-0.94
-0.33
0.31
0.80
1.03
1.05
0.96
0.90
0.90
0.90
0.79
0.48
0.01
-0.49
-0.88
-1.11
-1.21
-1.32
-1.53
-1.83
-2.11
-2.22
-2.10
-1.79
-1.45
-1.23
-1.20
-1.26
-1.24
-1.00
-0.51
0.15
0.79
1.25
1.43
1.36
1.10
0.78
0.46
0.21
0.04
-0.05
-0.06
0.00
0.12
0.25
0.37
0.45
0.50
0.54
0.61
0.74
0.90
1.02
1.01
0.82
0.46
0.03
-0.35
-0.57
-0.55
-0.28
0.19
0.81
1.44
1.96
2.23
2.18
1.80
1.21
0.60
0.17
0.01
0.13
0.40
0.67
0.83
0.85
0.76
0.61
0.46
0.31
0.15
-0.04
-0.23
-0.37
-0.41
-0.33
-0.13
0.15
0.48
0.84
1.25
1.68
2.08
2.35
2.40
2.22
1.87
1.48
1.15
0.96
0.90
0.91
0.91
0.89
0.86
0.84
0.84
0.88
0.95
1.06
1.21
1.36
1.45
1.41
1.18
0.82
0.39
0.02
-0.24
-0.35
-0.35
-0.28
-0.18
-0.10
-0.07
-0.12
-0.24
-0.38
-0.48
-0.47
-0.35
-0.13
0.10
0.32
0.49
0.64
0.80
0.93
0.98
0.90
0.72
0.52
0.45
0.61
0.99
1.47
1.87
2.04
1.98
1.85
1.85
2.14
2.74
3.47
4.07
4.28
3.95
3.08
1.77
0.24
-1.30
-2.65
-3.65
-4.21
-4.33
-4.10
-3.66
-3.20
-2.85
-2.69
-2.67
-2.72
-2.75
-2.71
-2.61
-2.49
-2.35
-2.20
-1.99
-1.71
-1.36
-1.02
-0.75
-0.63
-0.65
-0.78
-0.94
-1.07
-1.12
-1.06
-0.92
-0.71
-0.49
-0.28
-0.14
-0.05
-0.03
-0.03
-0.02
0.02
0.10
0.18
0.22
0.16
-0.01
-0.26
-0.53
-0.74
-0.82
-0.78
-0.63
-0.42
-0.21
-0.04
0.08
0.13
0.11
0.06
0.02
0.03
0.09
0.18
0.26
0.26
0.18
0.06
-0.06
-0.12
-0.10
-0.02
0.06
0.13
0.18
0.26
0.39
0.57
0.76
0.86
0.81
0.62
0.35
0.11
-0.04
-0.09
-0.11
-0.15
-0.25
-0.33
-0.33
-0.20
0.05
0.31
0.49
0.51
0.35
0.09
-0.20
-0.45
-0.60
-0.67
-0.67
-0.65
-0.63
-0.63
-0.62
-0.55
-0.41
-0.24
-0.11
-0.10
-0.22
-0.42
-0.62
-0.75
-0.80
-0.87
-1.05
-1.38
-1.80
-2.17
-2.29
-2.06
-1.47
-0.64
0.24
0.99
1.51
1.78
1.87
1.85
1.82
1.81
1.84
1.88
1.89
1.84
1.70
1.47
1.17
0.80
0.40
0.02
-0.29
-0.43
-0.35
-0.03
0.46
0.99
1.37
1.47
1.27
0.86
0.40
0.04
-0.15
-0.18
-0.11
0.00
0.13
0.27
0.42
0.56
0.66
0.70
0.66
0.57
0.45
0.30
0.14
0.00
-0.11
-0.17
-0.23
-0.30
-0.44
-0.66
-0.93
-1.19
-1.36
-1.37
-1.23
-0.97
-0.65
-0.33
-0.09
0.03
-0.01
-0.19
-0.49
-0.85
-1.19
-1.44
-1.54
-1.46
-1.24
-0.93
-0.63
-0.38
-0.22
-0.10
0.01
0.14
0.26
0.33
0.32
0.21
-0.01
-0.30
-0.61
-0.92
-1.16
-1.31
-1.33
-1.24
-1.11
-1.03
-1.07
-1.27
-1.56
-1.85
-2.03
-2.08
-2.02
-1.96
-1.97
-2.05
-2.18
-2.25
-2.21
-2.02
-1.71
-1.29
-0.73
-0.02
0.88
1.89
2.89
3.66
4.06
3.99
3.53
2.83
2.12
1.63
1.48
1.69
2.14
2.64
2.97
3.01
2.75
2.26
1.69
1.16
0.75
0.48
0.33
0.27
0.28
0.35
0.47
0.61
0.74
0.83
0.89
0.96
1.08
1.24
1.42
1.52
1.48
1.31
1.11
1.01
1.12
1.44
1.88
2.30
2.60
2.71
2.62
2.32
1.82
1.13
0.29
-0.58
-1.35
-1.91
-2.22
-2.32
-2.28
-2.21
-2.17
-2.22
-2.38
-2.65
-3.02
-3.40
-3.72
-3.89
-3.86
-3.62
-3.21
-2.72
-2.25
-1.88
-1.69
-1.70
-1.88
-2.15
-2.42
-2.61
-2.66
-2.58
-2.39
-2.18
-2.05
-2.05
-2.19
-2.41
-2.59
-2.61
-2.40
-1.98
-1.41
-0.80
-0.21
0.31
0.78
1.19
1.55
1.89
2.20
2.52
2.87
3.27
3.69
4.08
4.41
4.61
4.70
4.67
4.58
4.45
4.32
4.17
4.00
3.81
3.61
3.41
3.23
3.09
3.00
2.95
2.95
3.00
3.06
3.10
3.06
2.91
2.62
2.18
1.57
0.77
-0.20
-1.29
-2.37
-3.33
-4.10
-4.67
-5.07
-5.35
-5.51
-5.55
-5.42
-5.16
-4.84
-4.53
-4.33
-4.25
-4.26
-4.29
-4.27
-4.12
-3.82
-3.38
-2.83
-2.21
-1.56
-0.85
-0.03
0.94
2.02
3.06
3.91
4.45
4.71
4.80
4.88
5.06
5.33
5.56
5.69
5.66
5.48
5.15
4.64
3.87
2.76
1.34
-0.23
-1.72
-2.93
-3.75
-4.18
-4.33
-4.31
-4.18
-3.97
-3.71
-3.43
-3.21
-3.10
-3.12
-3.19
-3.18
-2.98
-2.55
-1.93
-1.25
-0.65
-0.24
-0.04
0.04
0.11
0.33
0.78
1.47
2.31
3.19
3.98
4.59
5.01
5.26
5.37
5.40
5.34
5.17
4.82
4.19
3.24
1.96
0.45
-1.08
-2.43
-3.43
-4.05
-4.35
-4.45
-4.42
-4.29
-4.09
-3.84
-3.63
-3.54
-3.60
-3.74
-3.84
-3.77
-3.48
-3.00
-2.45
-1.96
-1.60
-1.32
-1.03
-0.62
-0.08
0.56
1.17
1.69
2.09
2.47
2.91
3.43
3.97
4.42
4.69
4.79
4.81
4.85
4.91
4.89
4.63
4.03
3.09
1.93
0.73
-0.37
-1.33
-2.14
-2.81
-3.35
-3.70
-3.86
-3.83
-3.66
-3.46
-3.30
-3.22
-3.23
-3.30
-3.38
-3.42
-3.40
-3.31
-3.12
-2.83
-2.38
-1.71
-0.77
0.40
1.67
2.86
3.77
4.29
4.44
4.36
4.25
4.22
4.34
4.56
4.76
4.86
4.81
4.59
4.17
3.48
2.48
1.18
-0.29
-1.72
-2.86
-3.57
-3.84
-3.79
-3.60
-3.42
-3.33
-3.35
-3.48
-3.71
-4.01
-4.27
-4.36
-4.10
-3.41
-2.36
-1.18
-0.15
0.51
0.72
0.59
0.34
0.17
0.20
0.42
0.73
0.97
1.03
0.86
0.47
-0.04
-0.58
-1.03
-1.32
-1.38
-1.23
-0.88
-0.43
-0.00
0.28
0.38
0.31
0.20
0.16
0.25
0.45
0.68
0.82
0.84
0.75
0.66
0.63
0.69
0.80
0.92
1.01
1.07
1.15
1.27
1.46
1.71
1.99
2.23
2.33
2.24
1.96
1.58
1.23
1.06
1.15
1.46
1.87
2.21
2.36
2.32
2.19
2.05
1.99
1.97
1.96
1.90
1.79
1.68
1.63
1.63
1.61
1.48
1.20
0.78
0.34
-0.03
-0.31
-0.54
-0.80
-1.18
-1.62
-2.05
-2.33
-2.37
-2.21
-1.94
-1.71
-1.60
-1.64
-1.79
-1.99
-2.19
-2.34
-2.45
-2.51
-2.56
-2.63
-2.77
-3.04
-3.41
-3.82
-4.18
-4.40
-4.47
-4.46
-4.49
-4.64
-4.96
-5.43
-5.98
-6.58
-7.20
-7.86
-8.53
-9.20
-9.83
-10.45
-11.14
-11.99
-13.06
-14.34
-15.69
-16.93
-17.93
-18.63
-19.13
-19.52
-19.97
-20.59
-21.50
-22.75
-24.24
-25.54
-25.97
-24.73
-21.27
-15.55
-8.15
-0.08
7.59
14.05
18.99
22.47
24.74
26.05
26.60
26.56
26.13
25.56
25.08
24.83
24.89
25.19
25.65
26.11
26.43
26.46
26.18
25.61
24.90
24.27
23.92
24.00
24.51
25.31
26.15
26.78
27.05
27.02
26.90
27.01
27.56
28.66
30.28
32.32
34.44
36.01
36.03
33.34
27.20
17.72
6.12
-5.62
-15.54
-22.41
-26.20
-27.71
-28.07
-28.02
-27.72
-27.00
-25.70
-24.02
-22.44
-21.45
-21.21
-21.52
-21.87
-21.81
-21.09
-19.79
-18.20
-16.70
-15.50
-14.61
-13.86
-12.98
-11.82
-10.38
-8.83
-7.42
-6.30
-5.50
-4.88
-4.24
-3.44
-2.45
-1.35
-0.33
0.48
0.98
1.16
1.12
0.98
0.84
0.77
0.77
0.78
0.75
0.62
0.41
0.16
-0.07
-0.20
-0.19
-0.05
0.18
0.40
0.49
0.35
-0.03
-0.62
-1.32
-2.00
-2.59
-3.05
-3.39
-3.62
-3.71
-3.64
-3.42
-3.12
-2.86
-2.79
-2.94
-3.25
-3.55
-3.67
-3.54
-3.21
-2.82
-2.49
-2.26
-2.10
-1.94
-1.75
-1.59
-1.54
-1.64
-1.78
-1.80
-1.53
-0.93
-0.07
0.85
1.63
2.15
2.40
2.46
2.49
2.59
2.84
3.23
3.67
4.05
4.26
4.24
4.04
3.72
3.37
3.04
2.72
2.39
2.06
1.80
1.68
1.74
1.95
2.20
2.36
2.31
2.06
1.66
1.23
0.86
0.58
0.40
0.28
0.21
0.17
0.18
0.24
0.33
0.39
0.39
0.30
0.12
-0.10
-0.29
-0.39
-0.38
-0.30
-0.19
-0.10
-0.07
-0.10
-0.15
-0.19
-0.18
-0.14
-0.10
-0.11
-0.19
-0.30
-0.40
-0.43
-0.34
-0.17
-0.01
0.07
0.01
-0.14
-0.30
-0.34
-0.20
0.11
0.53
0.95
1.26
1.39
1.33
1.07
0.69
0.26
-0.13
-0.45
-0.68
-0.83
-0.91
-0.91
-0.82
-0.66
-0.50
-0.44
-0.54
-0.76
-0.98
-1.05
-0.88
-0.52
-0.11
0.21
0.32
0.25
0.06
-0.16
-0.34
-0.47
-0.53
-0.51
-0.39
-0.19
0.05
0.28
0.40
0.39
0.26
0.04
-0.18
-0.35
-0.43
-0.44
-0.35
-0.19
-0.01
0.16
0.24
0.20
0.06
-0.14
-0.32
-0.41
-0.39
-0.30
-0.20
-0.16
-0.17
-0.21
-0.24
-0.23
-0.17
-0.12
-0.12
-0.22
-0.40
-0.60
-0.73
-0.71
-0.52
-0.21
0.10
0.33
0.43
0.42
0.38
0.38
0.44
0.53
0.60
0.61
0.57
0.52
0.47
0.43
0.39
0.32
0.23
0.16
0.12
0.14
0.20
0.24
0.23
0.12
-0.06
-0.26
-0.38
-0.36
-0.19
0.09
0.37
0.54
0.55
0.42
0.18
-0.12
-0.46
-0.78
-1.02
-1.09
-0.92
-0.52
0.03
0.55
0.86
0.88
0.65
0.32
0.07
-0.00
0.09
0.25
0.33
0.27
0.09
-0.13
-0.28
-0.29
-0.19
-0.06
-0.01
-0.10
-0.32
-0.59
-0.75
-0.68
-0.34
0.18
0.70
1.04
1.07
0.83
0.47
0.16
0.02
0.02
0.05
0.01
-0.15
-0.32
-0.37
-0.20
0.17
0.60
0.90
0.93
0.70
0.33
-0.00
-0.13
0.00
0.36
0.82
1.24
1.54
1.68
1.68
1.59
1.45
1.29
1.16
1.14
1.28
1.61
2.09
2.59
3.00
3.25
3.36
3.44
3.60
3.87
4.23
4.59
4.89
5.11
5.22
5.16
4.82
4.07
2.86
1.30
-0.40
-2.00
-3.31
-4.24
-4.85
-5.20
-5.35
-5.36
-5.26
-5.11
-4.96
-4.85
-4.80
-4.77
-4.73
-4.59
-4.32
-3.94
-3.48
-3.04
-2.70
-2.52
-2.50
-2.58
-2.64
-2.57
-2.34
-2.00
-1.66
-1.45
-1.42
-1.56
-1.79
-2.02
-2.22
-2.39
-2.59
-2.88
-3.24
-3.60
-3.88
-4.04
-4.12
-4.21
-4.40
-4.74
-5.16
-5.56
-5.80
-5.75
-5.35
-4.60
-3.55
-2.27
-0.87
0.53
1.86
3.09
4.26
5.47
6.78
8.19
9.63
10.98
12.15
13.08
13.77
14.22
14.44
14.40
14.07
13.38
12.29
10.76
8.82
6.52
4.02
1.53
-0.74
-2.58
-3.90
-4.72
-5.14
-5.31
-5.33
-5.31
-5.27
-5.20
-5.08
-4.87
-4.59
-4.28
-3.96
-3.67
-3.38
-3.05
-2.67
-2.25
-1.85
-1.53
-1.39
-1.45
-1.69
-2.03
-2.40
-2.73
-2.98
-3.15
-3.24
-3.24
-3.15
-2.98
-2.77
-2.60
-2.53
-2.59
-2.74
-2.89
-2.95
-2.90
-2.79
-2.75
-2.88
-3.24
-3.78
-4.40
-4.96
-5.34
-5.53
-5.58
-5.57
-5.59
-5.64
-5.66
-5.53
-5.12
-4.38
-3.34
-2.17
-0.98
0.13
1.15
2.12
3.07
3.98
4.80
5.45
5.89
6.16
6.31
6.42
6.51
6.56
6.55
6.43
6.16
5.77
5.32
4.86
4.46
4.11
3.80
3.49
3.15
2.78
2.44
2.16
1.95
1.78
1.59
1.35
1.07
0.82
0.64
0.57
0.55
0.51
0.44
0.34
0.28
0.31
0.46
0.65
0.77
0.73
0.50
0.17
-0.14
-0.32
-0.35
-0.29
-0.24
-0.24
-0.32
-0.40
-0.42
-0.32
-0.13
0.11
0.30
0.35
0.22
-0.06
-0.43
-0.77
-0.96
-0.96
-0.78
-0.51
-0.24
-0.05
0.04
0.06
0.05
0.05
0.04
-0.02
-0.14
-0.32
-0.53
-0.75
-0.92
-1.04
-1.10
-1.09
-0.97
-0.71
-0.35
0.04
0.32
0.38
0.21
-0.10
-0.37
-0.47
-0.34
-0.03
0.32
0.56
0.59
0.39
0.07
-0.26
-0.47
-0.49
-0.34
-0.12
0.08
0.18
0.21
0.27
0.44
0.68
0.89
0.88
0.53
-0.12
-0.92
-1.62
-2.05
-2.14
-1.92
-1.52
-1.04
-0.57
-0.20
0.06
0.19
0.21
0.20
0.18
0.16
0.10
-0.12
-0.55
-1.17
-1.84
-2.40
-2.69
-2.71
-2.54
-2.38
-2.41
-2.73
-3.32
-4.03
-4.67
-5.10
-5.25
-5.20
-5.13
-5.21
-5.58
-6.24
-7.13
-8.16
-9.18
-10.01
-10.37
-9.91
-8.35
-5.69
-2.30
1.13
3.87
5.43
5.77
5.22
4.29
3.32
2.46
1.63
0.73
-0.20
-1.00
-1.40
-1.14
-0.04
1.99
4.96
8.86
13.61
19.08
25.13
31.61
38.29
44.66
49.71
52.01
50.14
43.39
32.28
18.69
5.23
-5.64
-12.57
-15.62
-15.97
-15.10
-14.06
-13.18
-12.22
-10.94
-9.41
-8.05
-7.37
-7.60
-8.54
-9.71
-10.53
-10.61
-9.98
-8.97
-8.04
-7.55
-7.59
-7.97
-8.33
-8.37
-7.92
-7.07
-6.06
-5.13
-4.47
-4.10
-3.94
-3.84
-3.72
-3.50
-3.18
-2.80
-2.42
-2.10
-1.88
-1.74
-1.61
-1.39
-1.03
-0.56
-0.04
0.40
0.67
0.76
0.71
0.60
0.50
0.42
0.33
0.19
-0.01
-0.25
-0.48
-0.63
-0.67
-0.61
-0.47
-0.31
-0.14
0.04
0.28
0.57
0.88
1.10
1.12
0.88
0.42
-0.14
-0.64
-0.96
-1.03
-0.88
-0.60
-0.28
-0.00
0.19
0.30
0.33
0.29
0.18
-0.01
-0.26
-0.51
-0.66
-0.64
-0.44
-0.12
0.21
0.42
0.48
0.44
0.37
0.38
0.49
0.64
0.73
0.67
0.44
0.07
-0.31
-0.58
-0.62
-0.37
0.11
0.68
1.14
1.31
1.14
0.71
0.21
-0.16
-0.31
-0.28
-0.19
-0.15
-0.17
-0.21
-0.18
-0.07
0.05
0.10
0.01
-0.15
-0.24
-0.13
0.20
0.61
0.90
0.89
0.52
-0.08
-0.68
-1.09
-1.21
-1.08
-0.84
-0.59
-0.37
-0.17
0.10
0.45
0.85
1.18
1.30
1.18
0.85
0.47
0.16
0.01
-0.00
0.03
0.02
-0.04
-0.12
-0.14
-0.08
0.02
0.06
-0.03
-0.25
-0.53
-0.77
-0.87
-0.80
-0.59
-0.28
0.04
0.31
0.49
0.56
0.55
0.48
0.39
0.31
0.26
0.27
0.35
0.55
0.83
1.16
1.46
1.67
1.76
1.73
1.63
1.49
1.38
1.32
1.38
1.59
1.95
2.40
2.82
3.09
3.11
2.88
2.49
2.06
1.69
1.48
1.42
1.50
1.64
1.75
1.75
1.59
1.25
0.72
0.06
-0.68
-1.41
-2.00
-2.38
-2.48
-2.32
-1.96
-1.53
-1.18
-1.00
-1.05
-1.29
-1.67
-2.11
-2.55
-2.95
-3.27
-3.48
-3.51
-3.36
-3.05
-2.65
-2.29
-2.08
-2.04
-2.13
-2.22
-2.19
-1.97
-1.57
-1.13
-0.76
-0.56
-0.49
-0.46
-0.37
-0.16
0.13
0.36
0.44
0.33
0.11
-0.07
-0.13
-0.03
0.15
0.31
0.42
0.46
0.51
0.58
0.66
0.67
0.61
0.50
0.44
0.50
0.67
0.86
0.98
1.00
0.98
1.04
1.23
1.50
1.71
1.71
1.50
1.17
0.90
0.84
1.02
1.38
1.81
2.18
2.42
2.48
2.35
2.08
1.74
1.46
1.37
1.52
1.87
2.28
2.62
2.80
2.80
2.68
2.50
2.28
2.06
1.82
1.55
1.17
0.61
-0.20
-1.23
-2.37
-3.44
-4.26
-4.74
-4.90
-4.85
-4.70
-4.54
-4.39
-4.23
-4.02
-3.76
-3.46
-3.16
-2.90
-2.70
-2.58
-2.55
-2.60
-2.74
-2.92
-3.11
-3.24
-3.29
-3.22
-3.08
-2.97
-3.01
-3.28
-3.77
-4.37
-4.94
-5.36
-5.57
-5.63
-5.65
-5.72
-5.91
-6.23
-6.63
-7.05
-7.37
-7.47
-7.23
-6.58
-5.58
-4.39
-3.24
-2.30
-1.63
-1.11
-0.56
0.23
1.34
2.67
4.05
5.21
5.99
6.29
6.14
5.64
4.93
4.12
3.31
2.55
1.84
1.14
0.42
-0.35
-1.11
-1.73
-2.05
-1.96
-1.50
-0.88
-0.45
-0.52
-1.23
-2.50
-4.00
-5.33
-6.17
-6.37
-6.01
-5.33
-4.61
-4.15
-4.12
-4.60
-5.53
-6.79
-8.17
-9.48
-10.57
-11.48
-12.38
-13.55
-15.26
-17.57
-20.19
-22.41
-23.26
-21.86
-17.78
-11.30
-3.43
4.45
11.06
15.63
18.05
18.77
18.42
17.56
16.56
15.56
14.67
13.97
13.57
13.49
13.63
13.77
13.72
13.36
12.73
11.99
11.31
10.84
10.58
10.45
10.29
9.92
9.24
8.25
7.09
5.96
5.07
4.56
4.43
4.55
4.74
4.83
4.71
4.35
3.80
3.17
2.55
2.03
1.65
1.41
1.30
1.23
1.15
0.98
0.72
0.38
0.05
-0.18
-0.24
-0.13
0.09
0.32
0.45
0.42
0.25
0.02
-0.17
-0.25
-0.20
-0.04
0.18
0.42
0.64
0.80
0.88
0.82
0.63
0.33
-0.00
-0.27
-0.37
-0.27
-0.00
0.31
0.55
0.63
0.56
0.39
0.23
0.13
0.08
0.02
-0.11
-0.34
-0.64
-0.94
-1.17
-1.26
-1.23
-1.11
-0.93
-0.75
-0.59
-0.50
-0.48
-0.57
-0.77
-1.04
-1.33
-1.52
-1.53
-1.29
-0.81
-0.19
0.44
0.91
1.11
0.99
0.65
0.22
-0.11
-0.26
-0.21
-0.04
0.15
0.25
0.24
0.11
-0.07
-0.24
-0.31
-0.21
0.06
0.44
0.79
0.98
0.94
0.73
0.47
0.31
0.29
0.34
0.32
0.12
-0.24
-0.66
-0.97
-1.09
-1.01
-0.83
-0.63
-0.47
-0.33
-0.18
0.02
0.24
0.39
0.42
0.30
0.06
-0.20
-0.40
-0.46
-0.36
-0.15
0.09
0.31
0.45
0.52
0.55
0.56
0.58
0.59
0.56
0.48
0.38
0.28
0.23
0.21
0.23
0.24
0.21
0.15
0.08
0.06
0.13
0.26
0.41
0.48
0.40
0.16
-0.18
-0.52
-0.76
-0.83
-0.74
-0.54
-0.29
-0.07
0.08
0.11
0.02
-0.18
-0.42
-0.60
-0.65
-0.57
-0.39
-0.17
0.03
0.18
0.26
0.27
0.22
0.13
0.04
0.01
0.08
0.25
0.50
0.75
0.92
0.94
0.79
0.48
0.08
-0.32
-0.63
-0.76
-0.71
-0.51
-0.28
-0.11
-0.05
-0.10
-0.20
-0.27
-0.29
-0.30
-0.31
-0.32
-0.30
-0.18
0.04
0.34
0.61
0.77
0.77
0.61
0.40
0.20
0.07
0.03
0.02
-0.00
-0.05
-0.13
-0.23
-0.31
-0.37
-0.40
-0.42
-0.42
-0.42
-0.42
-0.41
-0.38
-0.28
-0.11
0.10
0.28
0.36
0.31
0.16
-0.01
-0.07
0.06
0.39
0.82
1.23
1.48
1.54
1.41
1.19
0.97
0.84
0.84
0.98
1.25
1.63
2.04
2.37
2.55
2.53
2.38
2.26
2.35
2.75
3.43
4.22
4.92
5.38
5.59
5.75
6.11
6.87
8.01
9.31
10.41
11.02
11.08
10.85
10.84
11.51
13.09
15.42
17.96
20.12
21.45
21.87
21.70
21.45
21.66
22.78
25.13
28.86
33.77
38.98
42.87
43.34
38.58
27.98
12.67
-4.68
-20.76
-32.90
-39.94
-42.33
-41.62
-39.47
-36.96
-34.48
-31.96
-29.39
-26.99
-25.18
-24.25
-24.13
-24.36
-24.28
-23.35
-21.46
-18.96
-16.48
-14.66
-13.79
-13.72
-13.89
-13.64
-12.55
-10.58
-8.17
-5.99
-4.63
-4.36
-5.01
-6.06
-6.92
-7.13
-6.64
-5.70
-4.80
-4.33
-4.45
-4.98
-5.47
-5.48
-4.72
-3.27
-1.52
-0.04
0.66
0.30
-0.93
-2.49
-3.59
-3.34
-0.93
4.22
12.21
22.34
32.91
41.48
45.53
43.45
35.38
23.32
10.37
-0.46
-7.41
-10.41
-10.68
-9.81
-8.83
-7.94
-6.82
-5.14
-3.04
-1.06
0.22
0.59
0.27
-0.18
-0.21
0.33
1.22
1.95
2.02
1.26
-0.13
-1.66
-2.82
-3.29
-3.07
-2.45
-1.81
-1.45
-1.46
-1.73
-2.02
-2.14
-1.99
-1.63
-1.23
-1.01
-1.09
-1.53
-2.22
-3.00
-3.74
-4.34
-4.83
-5.28
-5.74
-6.17
-6.51
-6.65
-6.53
-6.19
-5.70
-5.16
-4.63
-4.12
-3.66
-3.24
-2.87
-2.57
-2.31
-2.10
-1.89
-1.69
-1.53
-1.46
-1.55
-1.81
-2.23
-2.68
-2.99
-2.95
-2.43
-1.47
-0.26
0.90
1.71
2.04
1.94
1.64
1.35
1.21
1.19
1.19
1.09
0.89
0.67
0.56
0.64
0.93
1.35
1.80
2.17
2.41
2.50
2.46
2.34
2.15
1.93
1.67
1.40
1.13
0.95
0.90
1.02
1.28
1.58
1.80
1.84
1.65
1.23
0.69
0.15
-0.26
-0.44
-0.36
-0.06
0.33
0.69
0.92
0.99
0.97
0.92
0.91
0.92
0.90
0.77
0.51
0.19
-0.08
-0.21
-0.13
0.09
0.37
0.58
0.65
0.55
0.30
-0.09
-0.55
-1.03
-1.41
-1.55
-1.40
-0.99
-0.47
-0.07
0.10
0.02
-0.13
-0.16
0.06
0.48
0.95
1.28
1.43
1.47
1.53
1.70
1.93
2.15
2.25
2.25
2.26
2.40
2.68
3.01
3.22
3.16
2.79
2.20
1.55
0.94
0.44
0.06
-0.20
-0.34
-0.36
-0.27
-0.09
0.11
0.29
0.45
0.63
0.90
1.36
2.03
2.90
3.88
4.81
5.54
5.94
5.87
5.28
4.19
2.74
1.27
0.22
0.02
0.83
2.48
4.51
6.30
7.26
7.05
5.56
2.90
-0.66
-4.69
-8.68
-12.05
-14.27
-15.12
-14.69
-13.43
-11.92
-10.66
-9.89
-9.63
-9.70
-9.87
-9.92
-9.70
-9.10
-8.17
-7.03
-5.88
-4.96
-4.39
-4.17
-4.17
-4.17
-4.02
-3.66
-3.20
-2.86
-2.86
-3.38
-4.44
-5.90
-7.35
-8.28
-8.14
-6.59
-3.68
0.13
4.10
7.47
9.72
10.75
10.78
10.23
9.52
8.92
8.53
8.34
8.25
8.17
7.98
7.57
6.89
5.98
4.93
3.93
3.11
2.52
2.12
1.75
1.30
0.71
0.01
-0.69
-1.28
-1.67
-1.88
-1.94
-1.93
-1.88
-1.82
-1.81
-1.91
-2.18
-2.65
-3.26
-3.89
-4.43
-4.80
-5.05
-5.27
-5.49
-5.62
-5.43
-4.67
-3.22
-1.20
1.07
3.16
4.81
5.93
6.63
7.10
7.39
7.42
7.03
6.10
4.74
3.22
1.91
1.09
0.88
1.13
1.53
1.74
1.57
1.04
0.37
-0.10
-0.13
0.37
1.22
2.13
2.78
3.03
2.92
2.64
2.44
2.45
2.69
3.02
3.32
3.52
3.60
3.65
3.73
3.85
4.01
4.21
4.50
4.99
5.78
6.86
8.06
8.99
9.18
8.26
6.18
3.24
0.09
-2.61
-4.35
-4.95
-4.56
-3.50
-2.10
-0.55
1.09
2.79
4.53
6.18
7.59
8.58
9.00
8.74
7.76
6.08
3.90
1.47
-0.93
-3.02
-4.67
-5.86
-6.67
-7.21
-7.55
-7.70
-7.68
-7.55
-7.43
-7.42
-7.58
-7.84
-8.05
-8.07
-7.79
-7.26
-6.63
-6.13
-5.87
-5.88
-6.00
-6.05
-5.88
-5.47
-4.94
-4.46
-4.16
-4.08
-4.15
-4.24
-4.23
-4.11
-3.90
-3.73
-3.71
-3.88
-4.26
-4.73
-5.12
-5.22
-4.87
-4.09
-3.11
-2.31
-2.10
-2.68
-3.92
-5.41
-6.58
-7.03
-6.67
-5.83
-5.06
-4.94
-5.73
-7.25
-8.94
-10.10
-10.25
-9.25
-7.45
-5.52
-4.11
-3.71
-4.51
-6.40
-8.83
-10.78
-10.77
-7.29
0.64
12.69
26.93
40.19
49.14
51.57
47.32
38.25
27.37
17.49
10.20
5.59
2.73
0.55
-1.50
-3.38
-4.68
-5.16
-4.96
-4.55
-4.46
-4.88
-5.59
-6.11
-6.00
-5.15
-3.81
-2.54
-1.91
-2.19
-3.32
-4.89
-6.36
-7.27
-7.42
-6.89
-5.98
-5.12
-4.59
-4.52
-4.78
-5.07
-5.07
-4.53
-3.47
-2.10
-0.79
0.13
0.52
0.50
0.36
0.41
0.90
1.84
3.13
4.61
6.10
7.43
8.44
8.96
8.89
8.20
7.00
5.48
3.89
2.38
1.05
-0.10
-1.08
-1.89
-2.47
-2.79
-2.82
-2.58
-2.16
-1.69
-1.33
-1.25
-1.53
-2.17
-3.05
-3.99
-4.85
-5.54
-6.08
-6.45
-6.60
-6.43
-5.85
-4.89
-3.68
-2.44
-1.33
-0.40
0.40
1.11
1.72
2.16
2.36
2.34
2.18
2.03
1.99
2.04
2.10
2.03
1.74
1.21
0.48
-0.33
-1.04
-1.45
-1.38
-0.80
0.13
1.12
1.82
2.02
1.69
1.02
0.22
-0.55
-1.34
-2.29
-3.56
-5.15
-6.82
-8.23
-9.01
-9.07
-8.63
-8.23
-8.48
-9.88
-12.48
-15.93
-19.49
-22.38
-24.12
-24.65
-24.37
-23.88
-23.71
-24.22
-25.59
-27.89
-30.90
-33.75
-34.87
-32.33
-24.74
-12.19
3.37
18.70
30.55
37.02
38.27
36.06
32.67
29.66
27.42
25.42
23.05
20.25
17.54
15.61
14.80
14.84
15.05
14.72
13.45
11.46
9.36
7.92
7.65
8.63
10.46
12.49
14.08
14.90
15.03
14.88
15.00
15.78
17.31
19.34
21.33
22.69
22.99
22.17
20.63
19.09
18.33
18.82
20.53
22.83
24.83
25.82
25.55
24.40
23.14
22.58
23.30
25.61
29.59
35.00
40.94
45.65
46.73
41.99
30.50
13.47
-5.98
-23.88
-37.02
-44.14
-46.04
-44.77
-42.36
-39.97
-37.74
-35.37
-32.73
-30.18
-28.28
-27.34
-27.09
-26.81
-25.76
-23.48
-20.19
-16.62
-13.70
-12.08
-11.84
-12.48
-13.13
-13.01
-11.73
-9.48
-6.87
-4.60
-3.09
-2.37
-2.11
-1.89
-1.47
-0.91
-0.47
-0.47
-0.98
-1.85
-2.73
-3.28
-3.30
-2.85
-2.15
-1.52
-1.19
-1.23
-1.58
-1.97
-2.10
-1.59
-0.21
2.13
5.21
8.59
11.71
14.14
15.75
16.70
17.33
17.99
18.82
19.72
20.39
20.52
19.87
18.38
16.15
13.39
10.40
7.46
4.82
2.59
0.79
-0.71
-2.14
-3.69
-5.49
-7.55
-9.71
-11.75
-13.42
-14.53
-15.01
-14.90
-14.30
-13.32
-12.06
-10.65
-9.29
-8.18
-7.50
-7.26
-7.32
-7.41
-7.28
-6.78
-5.99
-5.09
-4.30
-3.73
-3.34
-3.00
-2.59
-2.10
-1.61
-1.29
-1.25
-1.53
-2.02
-2.51
-2.81
-2.80
-2.50
-2.03
-1.54
-1.17
-0.95
-0.85
-0.81
-0.77
-0.73
-0.72
-0.78
-0.89
-1.00
-1.04
-1.00
-0.91
-0.83
-0.81
-0.85
-0.95
-1.05
-1.09
-1.02
-0.80
-0.42
0.06
0.54
0.86
0.94
0.77
0.47
0.18
0.05
0.10
0.21
0.22
0.02
-0.40
-0.93
-1.43
-1.80
-2.06
-2.29
-2.59
-2.96
-3.35
-3.62
-3.64
-3.36
-2.76
-1.95
-1.05
-0.23
0.34
0.58
0.53
0.30
0.07
-0.03
0.04
0.21
0.40
0.52
0.52
0.36
-0.03
-0.72
-1.72
-2.95
-4.26
-5.46
-6.50
-7.44
-8.47
-9.79
-11.43
-13.29
-15.12
-16.66
-17.71
-18.21
-18.25
-18.00
-17.67
-17.49
-17.55
-17.84
-18.20
-18.41
-18.33
-17.98
-17.69
-17.95
-19.33
-22.08
-25.77
-29.15
-30.37
-27.58
-19.82
-7.55
7.32
22.26
35.08
44.82
51.92
57.69
63.39
69.62
76.19
82.34
86.96
88.62
85.66
76.62
60.97
39.81
15.99
-6.76
-25.21
-37.83
-45.10
-48.78
-50.58
-51.34
-50.88
-48.73
-44.98
-40.63
-37.16
-35.89
-37.32
-41.01
-45.68
-49.45
-50.21
-46.16
-36.44
-21.60
-3.77
13.92
28.49
38.12
42.78
43.86
43.25
42.41
41.83
41.29
40.39
39.07
37.69
36.63
35.88
34.95
33.16
30.22
26.49
22.98
20.70
20.00
20.20
19.85
17.42
12.22
4.75
-3.47
-10.65
-15.54
-17.84
-18.09
-17.18
-15.85
-14.44
-13.03
-11.65
-10.46
-9.74
-9.66
-10.17
-10.93
-11.44
-11.26
-10.16
-8.23
-5.85
-3.60
-1.97
-1.18
-0.90
-0.39
1.30
4.75
9.89
15.95
21.84
26.63
29.97
31.91
32.60
31.88
29.29
24.48
17.64
9.70
2.03
-4.25
-8.72
-11.79
-14.26
-16.71
-19.26
-21.58
-23.27
-24.17
-24.43
-24.31
-23.98
-23.48
-22.81
-22.06
-21.48
-21.36
-21.83
-22.73
-23.65
-24.19
-24.05
-23.27
-22.15
-21.15
-20.85
-21.85
-24.60
-28.97
-33.80
-36.81
-35.18
-26.75
-11.23
9.26
30.78
49.09
61.33
66.89
67.13
64.21
59.94
55.24
50.49
46.09
42.72
40.88
40.35
39.83
37.44
31.68
22.33
10.53
-1.56
-11.84
-19.05
-22.98
-24.22
-23.65
-22.06
-20.03
-17.99
-16.31
-15.28
-15.01
-15.33
-15.85
-16.16
-15.96
-15.20
-14.08
-12.89
-11.86
-11.10
-10.54
-10.03
-9.38
-8.49
-7.40
-6.25
-5.21
-4.45
-3.99
-3.77
-3.63
-3.41
-3.02
-2.46
-1.80
-1.16
-0.67
-0.37
-0.26
-0.24
-0.25
-0.26
-0.39
-0.86
-1.86
-3.45
-5.46
-7.53
-9.24
-10.33
-10.81
-10.95
-11.11
-11.57
-12.36
-13.33
-14.26
-15.01
-15.64
-16.41
-17.62
-19.54
-22.25
-25.59
-29.24
-32.70
-35.47
-37.17
-37.61
-36.97
-35.76
-34.79
-34.88
-36.65
-40.16
-44.61
-48.40
-49.35
-45.45
-35.71
-20.73
-2.70
15.29
30.32
40.64
46.09
47.77
47.25
45.81
44.05
42.02
39.64
37.03
34.57
32.68
31.52
30.89
30.32
29.34
27.64
25.32
22.72
20.33
18.52
17.42
16.84
16.42
15.78
14.69
13.17
11.47
9.92
8.77
8.05
7.63
7.25
6.65
5.74
4.57
3.35
2.33
1.65
1.31
1.20
1.15
1.03
0.81
0.53
0.26
0.04
-0.10
-0.19
-0.21
-0.17
-0.07
0.09
0.27
0.46
0.66
0.91
1.20
1.51
1.73
1.77
1.57
1.14
0.58
0.05
-0.33
-0.50
-0.46
-0.27
-0.00
0.26
0.46
0.55
0.52
0.39
0.19
-0.00
-0.14
-0.20
-0.18
-0.09
0.04
0.17
0.28
0.34
0.29
0.14
-0.10
-0.36
-0.56
-0.66
-0.65
-0.58
-0.49
-0.42
-0.36
-0.32
-0.30
-0.35
-0.43
-0.52
-0.51
-0.34
-0.03
0.30
0.50
0.49
0.31
0.11
0.00
0.04
0.15
0.25
0.27
0.19
0.07
-0.02
-0.04
-0.01
0.02
0.04
0.03
-0.01
-0.04
-0.05
-0.01
0.08
0.21
0.34
0.44
0.46
0.44
0.39
0.38
0.43
0.51
0.58
0.55
0.34
-0.06
-0.57
-1.08
-1.41
-1.45
-1.19
-0.72
-0.18
0.30
0.61
0.72
0.64
0.43
0.13
-0.17
-0.40
-0.49
-0.41
-0.18
0.14
0.45
0.69
0.83
0.89
0.88
0.81
0.69
0.52
0.33
0.16
-0.00
-0.15
-0.30
-0.47
-0.63
-0.75
-0.77
-0.67
-0.52
-0.41
-0.38
-0.41
-0.42
-0.34
-0.17
-0.01
0.07
0.05
0.01
0.06
0.28
0.63
0.97
1.13
1.06
0.80
0.48
0.22
0.07
-0.01
-0.06
-0.09
-0.09
-0.03
0.05
0.10
0.06
-0.10
-0.32
-0.53
-0.65
-0.63
-0.53
-0.41
-0.37
-0.46
-0.68
-0.94
-1.11
-1.09
-0.83
-0.38
0.12
0.53
0.74
0.74
0.59
0.41
0.28
0.26
0.35
0.48
0.56
0.51
0.30
0.00
-0.27
-0.43
-0.43
-0.34
-0.25
-0.24
-0.31
-0.44
-0.53
-0.54
-0.46
-0.30
-0.10
0.14
0.41
0.68
0.89
0.99
0.93
0.74
0.46
0.19
-0.00
-0.05
0.05
0.28
0.53
0.68
0.67
0.47
0.13
-0.26
-0.60
-0.83
-0.91
-0.87
-0.74
-0.55
-0.34
-0.11
0.11
0.31
0.45
0.51
0.49
0.40
0.28
0.15
0.05
0.01
0.03
0.09
0.15
0.16
0.11
-0.01
-0.15
-0.25
-0.27
-0.18
-0.03
0.10
0.13
0.01
-0.24
-0.54
-0.78
-0.87
-0.76
-0.47
-0.12
0.18
0.34
0.36
0.31
0.29
0.38
0.56
0.74
0.85
0.80
0.62
0.38
0.17
0.04
0.01
0.02
0.04
0.02
-0.02
-0.08
-0.13
-0.15
-0.16
-0.16
-0.19
-0.24
-0.33
-0.43
-0.54
-0.62
-0.66
-0.64
-0.57
-0.43
-0.25
-0.08
0.03
0.07
0.03
-0.05
-0.09
-0.04
0.10
0.28
0.42
0.45
0.37
0.24
0.16
0.21
0.37
0.58
0.70
0.64
0.38
-0.01
-0.42
-0.75
-0.94
-1.01
-0.96
-0.81
-0.55
-0.18
0.23
0.56
0.72
0.63
0.32
-0.10
-0.49
-0.73
-0.75
-0.58
-0.29
-0.00
0.19
0.23
0.12
-0.07
-0.23
-0.25
-0.12
0.12
0.36
0.50
0.49
0.32
0.05
-0.25
-0.49
-0.59
-0.50
-0.22
0.17
0.57
0.83
0.86
0.67
0.34
0.03
-0.12
-0.05
0.20
0.55
0.83
0.92
0.78
0.42
-0.05
-0.46
-0.70
-0.70
-0.50
-0.21
0.05
0.22
0.28
0.26
0.20
0.12
0.01
-0.14
-0.30
-0.45
-0.54
-0.55
-0.49
-0.41
-0.32
-0.23
-0.13
0.00
0.16
0.33
0.44
0.45
0.34
0.15
-0.06
-0.23
-0.29
-0.20
-0.01
0.23
0.44
0.56
0.59
0.55
0.47
0.38
0.27
0.12
-0.09
-0.35
-0.65
-0.94
-1.16
-1.29
-1.30
-1.20
-0.97
-0.63
-0.23
0.16
0.42
0.47
0.31
0.02
-0.27
-0.42
-0.40
-0.23
-0.03
0.09
0.08
-0.03
-0.15
-0.19
-0.12
0.07
0.36
0.70
1.05
1.35
1.53
1.52
1.29
0.85
0.31
-0.21
-0.58
-0.72
-0.64
-0.43
-0.19
0.01
0.12
0.15
0.11
-0.02
-0.21
-0.42
-0.56
-0.55
-0.34
-0.01
0.31
0.48
0.45
0.30
0.19
0.24
0.44
0.66
0.72
0.56
0.21
-0.14
-0.34
-0.31
-0.11
0.12
0.27
0.27
0.16
0.00
-0.16
-0.32
-0.49
-0.67
-0.84
-0.92
-0.85
-0.62
-0.26
0.09
0.32
0.36
0.20
-0.08
-0.35
-0.54
-0.62
-0.61
-0.57
-0.49
-0.38
-0.20
0.03
0.27
0.43
0.45
0.31
0.11
-0.03
-0.01
0.21
0.55
0.85
0.97
0.86
0.56
0.23
-0.01
-0.12
-0.14
-0.15
-0.20
-0.28
-0.34
-0.33
-0.29
-0.27
-0.32
-0.40
-0.45
-0.34
-0.07
0.29
0.60
0.72
0.65
0.45
0.27
0.22
0.29
0.41
0.46
0.36
0.13
-0.14
-0.34
-0.41
-0.35
-0.25
-0.20
-0.25
-0.40
-0.58
-0.71
-0.69
-0.50
-0.19
0.13
0.34
0.42
0.40
0.37
0.43
0.56
0.67
0.64
0.41
0.01
-0.39
-0.65
-0.63
-0.37
0.02
0.38
0.59
0.60
0.41
0.09
-0.30
-0.65
-0.90
-0.99
-0.89
-0.63
-0.26
0.12
0.42
0.59
0.58
0.42
0.16
-0.11
-0.31
-0.36
-0.28
-0.10
0.08
0.16
0.09
-0.13
-0.44
-0.73
-0.88
-0.83
-0.58
-0.18
0.28
0.69
1.00
1.17
1.19
1.07
0.81
0.45
0.06
-0.26
-0.42
-0.37
-0.11
0.27
0.64
0.87
0.90
0.75
0.50
0.24
0.06
-0.02
-0.01
0.04
0.10
0.12
0.12
0.11
0.09
0.04
-0.07
-0.27
-0.49
-0.65
-0.63
-0.37
0.07
0.52
0.75
0.63
0.16
-0.49
-1.08
-1.37
-1.30
-0.95
-0.52
-0.19
-0.06
-0.12
-0.29
-0.49
-0.66
-0.78
-0.88
-0.94
-0.91
-0.74
-0.39
0.09
0.57
0.93
1.07
0.96
0.67
0.28
-0.09
-0.36
-0.48
-0.49
-0.42
-0.33
-0.24
-0.14
0.01
0.20
0.45
0.69
0.84
0.85
0.73
0.55
0.40
0.32
0.32
0.35
0.36
0.34
0.30
0.27
0.24
0.21
0.16
0.11
0.09
0.13
0.21
0.30
0.34
0.30
0.22
0.17
0.20
0.32
0.48
0.57
0.52
0.32
0.08
-0.09
-0.12
-0.04
0.05
0.04
-0.12
-0.40
-0.70
-0.93
-1.06
-1.10
-1.09
-1.04
-0.93
-0.72
-0.42
-0.08
0.22
0.39
0.37
0.17
-0.14
-0.46
-0.69
-0.78
-0.73
-0.55
-0.31
-0.03
0.23
0.44
0.55
0.49
0.30
0.04
-0.14
-0.12
0.13
0.51
0.82
0.89
0.65
0.20
-0.27
-0.56
-0.58
-0.39
-0.12
0.08
0.13
0.07
-0.04
-0.14
-0.21
-0.27
-0.32
-0.37
-0.35
-0.20
0.09
0.47
0.81
0.97
0.94
0.76
0.58
0.52
0.60
0.75
0.86
0.81
0.62
0.34
0.07
-0.13
-0.25
-0.32
-0.32
-0.24
-0.06
0.18
0.37
0.44
0.36
0.16
-0.05
-0.20
-0.27
-0.29
-0.34
-0.48
-0.67
-0.86
-1.01
-1.09
-1.09
-1.02
-0.87
-0.65
-0.39
-0.14
0.04
0.10
0.06
-0.05
-0.19
-0.33
-0.45
-0.55
-0.63
-0.66
-0.59
-0.39
-0.07
0.35
0.79
1.17
1.38
1.38
1.16
0.78
0.34
-0.03
-0.28
-0.40
-0.42
-0.37
-0.27
-0.08
0.21
0.56
0.88
1.07
1.04
0.81
0.46
0.11
-0.11
-0.18
-0.13
-0.03
0.04
0.04
-0.01
-0.09
-0.14
-0.15
-0.11
-0.07
-0.04
-0.06
-0.11
-0.19
-0.29
-0.43
-0.62
-0.84
-1.04
-1.15
-1.09
-0.87
-0.58
-0.37
-0.32
-0.45
-0.66
-0.77
-0.65
-0.31
0.15
0.57
0.84
0.93
0.91
0.88
0.85
0.79
0.63
0.35
0.01
-0.23
-0.26
-0.05
0.30
0.63
0.79
0.70
0.43
0.08
-0.21
-0.33
-0.27
-0.04
0.30
0.63
0.85
0.87
0.63
0.19
-0.37
-0.87
-1.18
-1.20
-0.99
-0.64
-0.34
-0.16
-0.12
-0.16
-0.17
-0.12
-0.03
0.03
-0.02
-0.18
-0.37
-0.46
-0.35
-0.05
0.33
0.65
0.77
0.68
0.44
0.18
0.00
-0.06
-0.02
0.05
0.11
0.17
0.25
0.38
0.56
0.73
0.80
0.71
0.44
0.06
-0.31
-0.54
-0.53
-0.32
-0.02
0.22
0.26
0.09
-0.19
-0.43
-0.51
-0.42
-0.23
-0.03
0.07
0.06
-0.03
-0.15
-0.25
-0.33
-0.35
-0.31
-0.19
-0.01
0.19
0.36
0.44
0.40
0.27
0.12
0.06
0.17
0.48
0.92
1.31
1.51
1.39
1.02
0.54
0.13
-0.09
-0.11
-0.02
0.04
-0.02
-0.23
-0.54
-0.89
-1.21
-1.43
-1.52
-1.48
-1.31
-1.07
-0.81
-0.57
-0.34
-0.09
0.18
0.41
0.50
0.37
0.01
-0.48
-0.90
-1.09
-1.00
-0.69
-0.32
-0.06
0.04
0.03
-0.01
0.04
0.21
0.46
0.69
0.83
0.84
0.75
0.62
0.51
0.44
0.42
0.42
0.44
0.47
0.51
0.57
0.62
0.62
0.52
0.34
0.12
-0.08
-0.24
-0.36
-0.50
-0.65
-0.80
-0.86
-0.76
-0.50
-0.19
0.06
0.14
0.07
-0.06
-0.15
-0.13
-0.01
0.15
0.31
0.44
0.53
0.58
0.56
0.45
0.27
0.05
-0.14
-0.30
-0.45
-0.61
-0.81
-0.99
-1.07
-0.98
-0.72
-0.36
0.02
0.32
0.52
0.60
0.58
0.48
0.29
0.04
-0.22
-0.38
-0.37
-0.13
0.30
0.80
1.23
1.44
1.39
1.09
0.67
0.25
-0.07
-0.23
-0.27
-0.22
-0.16
-0.11
-0.08
-0.03
0.04
0.14
0.27
0.40
0.54
0.65
0.72
0.72
0.64
0.50
0.38
0.35
0.48
0.82
1.32
1.89
2.41
2.81
3.09
3.29
3.49
3.74
4.04
4.33
4.55
4.69
4.79
4.96
5.27
5.74
6.34
7.00
7.64
8.23
8.76
9.24
9.68
10.06
10.37
10.58
10.68
10.68
10.58
10.34
9.91
9.22
8.24
7.09
5.99
5.26
5.12
5.61
6.48
7.29
7.67
7.46
6.83
6.15
5.75
5.76
6.09
6.52
6.93
7.32
7.78
8.38
9.07
9.73
10.22
10.58
10.97
11.62
12.64
13.91
15.13
15.90
15.95
15.16
13.62
11.38
8.38
4.36
-0.96
-7.61
-15.13
-22.54
-28.62
-32.40
-33.59
-32.66
-30.59
-28.36
-26.53
-25.13
-23.82
-22.27
-20.43
-18.49
-16.78
-15.53
-14.74
-14.23
-13.80
-13.25
-12.51
-11.64
-10.71
-9.86
-9.15
-8.61
-8.19
-7.75
-7.13
-6.26
-5.20
-4.16
-3.39
-3.06
-3.16
-3.51
-3.85
-3.98
-3.83
-3.49
-3.15
-2.95
-2.93
-3.02
-3.08
-3.04
-2.89
-2.73
-2.67
-2.84
-3.26
-3.87
-4.58
-5.25
-5.82
-6.24
-6.55
-6.86
-7.30
-7.98
-8.96
-10.21
-11.58
-12.87
-13.92
-14.70
-15.28
-15.87
-16.64
-17.70
-19.03
-20.56
-22.13
-23.54
-24.42
-24.34
-22.81
-19.58
-14.73
-8.78
-2.49
3.38
8.34
12.27
15.27
17.53
19.19
20.32
21.03
21.53
22.07
22.84
23.82
24.78
25.37
25.34
24.65
23.47
22.15
20.97
20.08
19.42
18.77
17.94
16.77
15.23
13.33
11.06
8.35
5.06
1.11
-3.43
-8.32
-13.17
-17.62
-21.39
-24.41
-26.77
-28.68
-30.37
-32.07
-34.06
-36.62
-39.88
-43.61
-47.09
-49.18
-48.71
-44.91
-37.84
-28.37
-17.90
-7.79
1.11
8.54
14.67
19.71
23.73
26.59
28.18
28.56
28.07
27.16
26.23
25.45
24.84
24.25
23.56
22.67
21.59
20.38
19.12
17.90
16.76
15.73
14.77
13.81
12.80
11.74
10.69
9.72
8.93
8.35
7.93
7.62
7.33
7.00
6.56
6.01
5.36
4.69
4.10
3.71
3.58
3.71
4.02
4.40
4.73
4.96
5.05
5.00
4.83
4.59
4.36
4.22
4.26
4.53
4.98
5.54
6.13
6.67
7.14
7.51
7.68
7.52
6.84
5.56
3.76
1.66
-0.41
-2.14
-3.36
-4.06
-4.39
-4.56
-4.76
-5.03
-5.32
-5.49
-5.40
-5.01
-4.39
-3.69
-3.09
-2.68
-2.45
-2.28
-2.02
-1.61
-1.03
-0.33
0.44
1.28
2.12
2.85
3.28
3.19
2.48
1.24
-0.24
-1.56
-2.37
-2.54
-2.18
-1.60
-1.10
-0.90
-1.01
-1.28
-1.57
-1.81
-2.04
-2.36
-2.84
-3.43
-4.00
-4.37
-4.46
-4.33
-4.13
-4.01
-4.03
-4.11
-4.08
-3.77
-3.16
-2.33
-1.45
-0.70
-0.17
0.12
0.25
0.30
0.34
0.36
0.37
0.36
0.33
0.33
0.40
0.57
0.81
1.07
1.25
1.27
1.10
0.77
0.35
-0.05
-0.34
-0.47
-0.47
-0.41
-0.38
-0.41
-0.48
-0.59
-0.71
-0.88
-1.14
-1.45
-1.73
-1.79
-1.49
-0.82
0.05
0.85
1.29
1.25
0.82
0.26
-0.16
-0.29
-0.14
0.16
0.42
0.50
0.33
-0.08
-0.69
-1.39
-2.07
-2.61
-2.92
-2.94
-2.70
-2.28
-1.81
-1.37
-1.00
-0.71
-0.48
-0.29
-0.11
0.07
0.26
0.47
0.65
0.74
0.67
0.40
-0.01
-0.45
-0.76
-0.82
-0.62
-0.25
0.16
0.48
0.66
0.73
0.75
0.76
0.76
0.71
0.57
0.36
0.10
-0.17
-0.41
-0.64
-0.88
-1.12
-1.31
-1.37
-1.22
-0.90
-0.50
-0.19
-0.08
-0.22
-0.51
-0.82
-1.04
-1.16
-1.25
-1.39
-1.60
-1.82
-1.92
-1.77
-1.35
-0.76
-0.20
0.12
0.10
-0.25
-0.76
-1.20
-1.37
-1.20
-0.73
-0.12
0.49
0.98
1.32
1.53
1.64
1.64
1.52
1.26
0.87
0.44
0.04
-0.24
-0.36
-0.36
-0.28
-0.17
-0.01
0.15
0.28
0.29
0.11
-0.26
-0.70
-1.05
-1.17
-1.01
-0.63
-0.18
0.21
0.48
0.63
0.68
0.63
0.45
0.15
-0.21
-0.53
-0.71
-0.71
-0.56
-0.36
-0.20
-0.15
-0.20
-0.29
-0.36
-0.32
-0.16
0.10
0.35
0.52
0.53
0.39
0.16
-0.03
-0.10
0.03
0.37
0.87
1.47
2.05
2.50
2.68
2.53
2.05
1.41
0.82
0.50
0.55
0.93
1.42
1.77
1.78
1.38
0.68
-0.11
-0.80
-1.29
-1.57
-1.70
-1.75
-1.74
-1.67
-1.56
-1.39
-1.20
-1.03
-0.86
-0.69
-0.48
-0.25
-0.06
0.03
-0.03
-0.22
-0.46
-0.64
-0.66
-0.51
-0.22
0.13
0.43
0.62
0.68
0.63
0.50
0.32
0.10
-0.13
-0.36
-0.56
-0.74
-0.93
-1.14
-1.34
-1.46
-1.39
-1.08
-0.55
0.04
0.50
0.72
0.67
0.46
0.24
0.11
0.06
0.04
-0.04
-0.18
-0.35
-0.45
-0.46
-0.41
-0.35
-0.36
-0.48
-0.64
-0.77
-0.79
-0.69
-0.49
-0.27
-0.09
0.01
0.04
0.03
0.02
0.00
-0.04
-0.12
-0.26
-0.43
-0.53
-0.52
-0.35
-0.07
0.23
0.43
0.48
0.41
0.29
0.21
0.24
0.37
0.56
0.76
0.90
0.94
0.85
0.62
0.32
0.04
-0.08
0.03
0.34
0.73
1.07
1.23
1.20
1.04
0.80
0.54
0.27
-0.00
-0.26
-0.45
-0.53
-0.45
-0.26
0.02
0.31
0.55
0.67
0.66
0.51
0.30
0.16
0.18
0.38
0.66
0.83
0.70
0.21
-0.53
-1.27
-1.76
-1.81
-1.45
-0.86
-0.29
0.07
0.16
0.07
-0.06
-0.11
-0.05
0.04
0.08
0.04
-0.03
-0.01
0.17
0.51
0.91
1.20
1.30
1.19
1.01
0.91
0.99
1.27
1.65
2.00
2.22
2.27
2.16
1.93
1.62
1.27
0.89
0.57
0.36
0.33
0.49
0.78
1.08
1.30
1.36
1.25
0.98
0.59
0.12
-0.38
-0.88
-1.33
-1.71
-2.00
-2.18
-2.26
-2.23
-2.11
-1.93
-1.72
-1.55
-1.46
-1.45
-1.53
-1.62
-1.68
-1.66
-1.55
-1.37
-1.18
-1.03
-0.95
-0.94
-0.96
-0.94
-0.85
-0.70
-0.51
-0.35
-0.26
-0.28
-0.37
-0.51
-0.63
-0.69
-0.65
-0.47
-0.17
0.20
0.58
0.87
1.03
1.00
0.80
0.46
0.06
-0.29
-0.50
-0.48
-0.22
0.19
0.60
0.86
0.89
0.71
0.42
0.15
-0.05
-0.17
-0.25
-0.27
-0.20
0.01
0.37
0.78
1.12
1.26
1.19
1.01
0.85
0.83
0.95
1.13
1.22
1.16
0.99
0.82
0.76
0.89
1.16
1.47
1.72
1.84
1.86
1.86
1.92
2.12
2.49
2.97
3.44
3.73
3.73
3.40
2.86
2.30
1.94
1.90
2.12
2.40
2.50
2.21
1.46
0.34
-0.97
-2.23
-3.27
-4.00
-4.40
-4.54
-4.49
-4.31
-4.05
-3.76
-3.52
-3.41
-3.48
-3.69
-3.92
-4.00
-3.77
-3.21
-2.45
-1.68
-1.11
-0.84
-0.81
-0.90
-1.00
-1.07
-1.14
-1.28
-1.48
-1.64
-1.65
-1.41
-0.99
-0.53
-0.22
-0.17
-0.33
-0.53
-0.58
-0.42
-0.09
0.22
0.35
0.21
-0.11
-0.47
-0.69
-0.68
-0.49
-0.20
0.05
0.19
0.22
0.18
0.16
0.18
0.23
0.27
0.26
0.19
0.09
-0.01
-0.04
-0.02
0.03
0.07
0.05
-0.07
-0.27
-0.48
-0.63
-0.64
-0.47
-0.14
0.26
0.61
0.83
0.88
0.80
0.67
0.57
0.55
0.60
0.71
0.83
0.92
0.96
0.91
0.75
0.45
0.07
-0.35
-0.69
-0.89
-0.89
-0.72
-0.44
-0.09
0.26
0.58
0.78
0.79
0.54
0.05
-0.56
-1.09
-1.36
-1.24
-0.77
-0.13
0.46
0.78
0.77
0.48
0.07
-0.31
-0.52
-0.55
-0.40
-0.17
0.07
0.25
0.34
0.34
0.29
0.22
0.19
0.21
0.27
0.34
0.34
0.24
0.05
-0.18
-0.36
-0.44
-0.43
-0.38
-0.34
-0.34
-0.35
-0.34
-0.31
-0.28
-0.30
-0.35
-0.39
-0.32
-0.12
0.18
0.45
0.55
0.42
0.13
-0.20
-0.43
-0.49
-0.40
-0.21
0.00
0.20
0.34
0.40
0.39
0.30
0.16
0.03
-0.04
-0.00
0.16
0.42
0.75
1.08
1.32
1.39
1.24
0.85
0.32
-0.21
-0.60
-0.77
-0.71
-0.52
-0.28
-0.09
0.02
0.07
0.08
0.06
0.01
-0.09
-0.21
-0.35
-0.47
-0.55
-0.56
-0.52
-0.47
-0.42
-0.42
-0.46
-0.52
-0.54
-0.51
-0.43
-0.38
-0.42
-0.57
-0.78
-0.92
-0.86
-0.54
-0.02
0.58
1.10
1.42
1.52
1.40
1.13
0.76
0.36
0.00
-0.27
-0.42
-0.45
-0.39
-0.29
-0.18
-0.09
-0.01
0.05
0.09
0.08
0.03
-0.04
-0.11
-0.17
-0.26
-0.38
-0.54
-0.68
-0.69
-0.49
-0.08
0.44
0.88
1.05
0.88
0.45
-0.07
-0.45
-0.55
-0.36
-0.02
0.29
0.44
0.39
0.21
0.02
-0.11
-0.18
-0.23
-0.32
-0.43
-0.48
-0.40
-0.14
0.22
0.55
0.73
0.73
0.59
0.43
0.34
0.32
0.33
0.28
0.10
-0.17
-0.47
-0.68
-0.74
-0.65
-0.46
-0.27
-0.16
-0.15
-0.25
-0.43
-0.61
-0.76
-0.82
-0.76
-0.57
-0.28
0.03
0.28
0.40
0.35
0.20
0.03
-0.07
-0.05
0.05
0.17
0.24
0.21
0.12
0.03
-0.02
-0.02
-0.00
-0.02
-0.07
-0.12
-0.10
0.02
0.24
0.47
0.61
0.59
0.38
0.04
-0.32
-0.58
-0.64
-0.48
-0.16
0.21
0.52
0.65
0.58
0.32
-0.01
-0.30
-0.45
-0.40
-0.20
0.06
0.26
0.32
0.22
0.06
-0.07
-0.09
0.02
0.21
0.39
0.50
0.49
0.41
0.28
0.12
-0.05
-0.22
-0.34
-0.39
-0.34
-0.21
-0.06
0.05
0.09
0.07
0.03
0.02
0.05
0.09
0.13
0.12
0.09
0.02
-0.07
-0.16
-0.22
-0.20
-0.06
0.19
0.47
0.67
0.72
0.60
0.40
0.23
0.19
0.27
0.39
0.41
0.25
-0.08
-0.49
-0.87
-1.15
-1.33
-1.47
-1.60
-1.72
-1.77
-1.69
-1.44
-1.09
-0.74
-0.52
-0.51
-0.71
-1.02
-1.31
-1.45
-1.36
-1.09
-0.73
-0.42
-0.25
-0.27
-0.45
-0.75
-1.13
-1.55
-2.00
-2.42
-2.77
-3.01
-3.14
-3.28
-3.53
-3.99
-4.66
-5.44
-6.18
-6.73
-7.04
-7.18
-7.30
-7.57
-8.13
-9.05
-10.27
-11.65
-12.91
-13.78
-14.02
-13.59
-12.67
-11.65
-10.98
-11.04
-11.95
-13.55
-15.43
-17.14
-18.34
-18.89
-18.91
-18.57
-18.06
-17.51
-16.98
-16.53
-16.16
-15.66
-14.53
-12.03
-7.49
-0.73
7.68
16.50
24.22
29.68
32.44
32.87
31.79
30.01
28.05
26.09
24.15
22.30
20.71
19.55
18.86
18.48
18.07
17.32
16.07
14.41
12.60
10.99
9.80
9.10
8.73
8.40
7.86
6.99
5.85
4.65
3.61
2.91
2.61
2.60
2.71
2.75
2.56
2.11
1.48
0.80
0.26
-0.03
-0.10
-0.07
-0.10
-0.30
-0.67
-1.05
-1.31
-1.34
-1.16
-0.90
-0.69
-0.61
-0.64
-0.67
-0.61
-0.45
-0.24
-0.08
-0.05
-0.16
-0.36
-0.58
-0.71
-0.69
-0.52
-0.24
0.08
0.34
0.43
0.33
0.10
-0.18
-0.36
-0.38
-0.25
-0.07
0.04
-0.01
-0.24
-0.57
-0.88
-1.05
-1.03
-0.82
-0.47
-0.08
0.28
0.58
0.77
0.84
0.78
0.61
0.37
0.15
0.02
0.03
0.15
0.30
0.34
0.22
-0.06
-0.38
-0.61
-0.64
-0.52
-0.35
-0.29
-0.39
-0.61
-0.79
-0.77
-0.50
-0.04
0.42
0.71
0.74
0.54
0.22
-0.11
-0.39
-0.59
-0.71
-0.75
-0.71
-0.60
-0.49
-0.44
-0.52
-0.68
-0.79
-0.75
-0.47
-0.03
0.39
0.64
0.63
0.44
0.24
0.20
0.39
0.73
1.07
1.26
1.26
1.09
0.85
0.59
0.35
0.11
-0.13
-0.37
-0.60
-0.79
-0.94
-1.02
-1.04
-0.97
-0.82
-0.62
-0.44
-0.32
-0.26
-0.25
-0.24
-0.22
-0.19
-0.16
-0.09
0.06
0.33
0.71
1.08
1.30
1.27
0.97
0.54
0.14
-0.09
-0.13
-0.08
-0.07
-0.16
-0.33
-0.48
-0.50
-0.33
0.00
0.39
0.70
0.84
0.78
0.58
0.32
0.11
-0.01
-0.05
-0.08
-0.19
-0.44
-0.80
-1.16
-1.38
-1.35
-1.07
-0.64
-0.18
0.19
0.41
0.51
0.50
0.44
0.36
0.27
0.17
0.07
-0.02
-0.10
-0.17
-0.24
-0.32
-0.40
-0.50
-0.59
-0.65
-0.63
-0.50
-0.25
0.09
0.42
0.67
0.75
0.65
0.44
0.18
-0.02
-0.12
-0.12
-0.03
0.12
0.34
0.60
0.83
0.96
0.92
0.69
0.35
0.02
-0.17
-0.20
-0.12
-0.04
-0.07
-0.18
-0.31
-0.35
-0.25
-0.05
0.15
0.28
0.32
0.31
0.32
0.40
0.50
0.58
0.57
0.45
0.23
0.01
-0.15
-0.22
-0.24
-0.30
-0.43
-0.64
-0.82
-0.88
-0.76
-0.52
-0.30
-0.25
-0.41
-0.73
-1.05
-1.21
-1.13
-0.88
-0.55
-0.25
-0.05
0.06
0.14
0.19
0.24
0.29
0.35
0.42
0.48
0.51
0.48
0.40
0.28
0.18
0.11
0.06
-0.02
-0.16
-0.36
-0.51
-0.52
-0.34
-0.00
0.36
0.59
0.62
0.46
0.22
0.02
-0.03
0.04
0.17
0.29
0.35
0.39
0.46
0.56
0.65
0.65
0.47
0.13
-0.28
-0.59
-0.69
-0.56
-0.28
0.01
0.19
0.19
0.05
-0.14
-0.28
-0.33
-0.28
-0.17
-0.07
0.01
0.05
0.09
0.15
0.27
0.41
0.54
0.60
0.58
0.50
0.41
0.36
0.37
0.41
0.42
0.35
0.16
-0.10
-0.37
-0.57
-0.67
-0.66
-0.59
-0.49
-0.39
-0.30
-0.26
-0.29
-0.40
-0.55
-0.69
-0.73
-0.63
-0.40
-0.10
0.20
0.45
0.61
0.69
0.71
0.67
0.58
0.47
0.34
0.23
0.13
0.03
-0.08
-0.21
-0.35
-0.48
-0.59
-0.66
-0.68
-0.61
-0.44
-0.17
0.16
0.49
0.73
0.86
0.88
0.82
0.73
0.62
0.47
0.26
-0.01
-0.29
-0.47
-0.49
-0.35
-0.14
-0.00
-0.00
-0.14
-0.31
-0.41
-0.37
-0.22
-0.08
-0.04
-0.11
-0.20
-0.20
-0.05
0.22
0.46
0.55
0.44
0.16
-0.14
-0.35
-0.41
-0.34
-0.25
-0.23
-0.29
-0.41
-0.52
-0.55
-0.49
-0.37
-0.23
-0.11
-0.03
0.02
0.08
0.16
0.26
0.34
0.33
0.19
-0.05
-0.30
-0.45
-0.41
-0.21
0.07
0.32
0.45
0.47
0.46
0.50
0.63
0.75
0.77
0.60
0.28
-0.07
-0.27
-0.25
-0.03
0.27
0.50
0.59
0.55
0.47
0.41
0.41
0.44
0.44
0.41
0.34
0.26
0.17
0.04
-0.11
-0.26
-0.34
-0.31
-0.13
0.13
0.35
0.43
0.27
-0.12
-0.65
-1.18
-1.55
-1.65
-1.45
-1.00
-0.42
0.13
0.53
0.69
0.60
0.31
-0.09
-0.44
-0.61
-0.55
-0.25
0.17
0.56
0.78
0.77
0.53
0.14
-0.26
-0.56
-0.72
-0.72
-0.60
-0.42
-0.24
-0.12
-0.07
-0.09
-0.16
-0.23
-0.29
-0.29
-0.20
-0.02
0.24
0.53
0.80
1.02
1.16
1.19
1.10
0.88
0.56
0.21
-0.11
-0.34
-0.45
-0.46
-0.43
-0.38
-0.33
-0.28
-0.23
-0.18
-0.18
-0.23
-0.32
-0.39
-0.40
-0.31
-0.16
0.02
0.17
0.24
0.23
0.16
0.08
0.01
-0.02
-0.02
-0.00
0.02
0.05
0.08
0.10
0.10
0.08
0.05
-0.01
-0.10
-0.20
-0.33
-0.47
-0.58
-0.62
-0.57
-0.42
-0.20
0.05
0.26
0.40
0.44
0.39
0.26
0.11
-0.02
-0.08
-0.08
-0.05
-0.04
-0.07
-0.08
-0.02
0.16
0.45
0.72
0.84
0.75
0.47
0.14
-0.09
-0.19
-0.16
-0.13
-0.17
-0.28
-0.36
-0.30
-0.04
0.33
0.68
0.86
0.80
0.57
0.28
0.05
-0.06
-0.09
-0.08
-0.05
0.03
0.19
0.39
0.56
0.58
0.38
-0.01
-0.43
-0.73
-0.79
-0.65
-0.45
-0.37
-0.50
-0.80
-1.11
-1.29
-1.25
-1.00
-0.65
-0.36
-0.18
-0.11
-0.08
0.00
0.19
0.45
0.72
0.91
0.98
0.96
0.90
0.83
0.74
0.59
0.34
-0.00
-0.36
-0.63
-0.71
-0.61
-0.38
-0.16
-0.06
-0.11
-0.24
-0.33
-0.29
-0.11
0.08
0.16
-0.01
-0.40
-0.87
-1.21
-1.27
-1.02
-0.58
-0.13
0.19
0.40
0.60
0.96
1.58
2.42
3.33
4.15
4.78
5.23
5.60
5.98
6.41
6.82
7.10
7.21
7.20
7.17
7.24
7.47
7.84
8.32
8.87
9.51
10.20
10.85
11.27
11.25
10.70
9.70
8.51
7.44
6.71
6.38
6.30
6.19
5.73
4.64
2.74
0.02
-3.30
-6.88
-10.22
-12.90
-14.63
-15.30
-15.04
-14.08
-12.73
-11.33
-10.12
-9.28
-8.82
-8.64
-8.54
-8.34
-7.91
-7.25
-6.41
-5.56
-4.84
-4.38
-4.21
-4.27
-4.37
-4.32
-3.97
-3.29
-2.42
-1.58
-0.96
-0.64
-0.58
-0.68
-0.79
-0.82
-0.73
-0.52
-0.24
0.01
0.16
0.12
-0.08
-0.39
-0.68
-0.86
-0.90
-0.84
-0.78
-0.78
-0.85
-0.94
-1.00
-0.98
-0.86
-0.64
-0.30
0.14
0.64
1.08
1.37
1.42
1.19
0.81
0.44
0.25
0.32
0.62
1.01
1.37
1.64
1.82
2.01
2.27
2.63
3.07
3.56
4.13
4.79
5.45
5.92
5.89
5.08
3.43
1.18
-1.18
-3.15
-4.37
-4.81
-4.70
-4.35
-3.98
-3.66
-3.32
-2.90
-2.40
-1.95
-1.69
-1.70
-1.97
-2.36
-2.69
-2.78
-2.60
-2.21
-1.78
-1.45
-1.36
-1.49
-1.75
-2.00
-2.09
-1.94
-1.54
-0.99
-0.41
0.04
0.28
0.29
0.15
-0.02
-0.11
-0.04
0.17
0.46
0.73
0.90
0.95
0.90
0.80
0.69
0.59
0.51
0.44
0.37
0.31
0.26
0.21
0.15
0.05
-0.07
-0.18
-0.19
-0.07
0.16
0.44
0.61
0.60
0.36
-0.00
-0.36
-0.55
-0.50
-0.26
0.06
0.29
0.35
0.22
0.02
-0.15
-0.20
-0.17
-0.15
-0.25
-0.47
-0.72
-0.81
-0.62
-0.17
0.39
0.86
1.08
1.04
0.83
0.61
0.48
0.44
0.46
0.46
0.43
0.36
0.24
0.07
-0.16
-0.39
-0.55
-0.54
-0.36
-0.08
0.17
0.25
0.13
-0.10
-0.34
-0.48
-0.49
-0.40
-0.25
-0.08
0.10
0.26
0.35
0.30
0.10
-0.24
-0.61
-0.86
-0.90
-0.72
-0.40
-0.08
0.12
0.17
0.10
-0.03
-0.17
-0.28
-0.35
-0.35
-0.27
-0.12
0.08
0.25
0.35
0.35
0.30
0.28
0.36
0.56
0.83
1.09
1.26
1.29
1.20
0.99
0.72
0.43
0.15
-0.08
-0.24
-0.35
-0.41
-0.46
-0.51
-0.55
-0.57
-0.56
-0.53
-0.46
-0.35
-0.16
0.08
0.32
0.47
0.49
0.36
0.14
-0.08
-0.27
-0.40
-0.51
-0.62
-0.68
-0.64
-0.48
-0.23
-0.02
0.04
-0.08
-0.29
-0.46
-0.47
-0.32
-0.11
0.02
-0.02
-0.18
-0.33
-0.33
-0.14
0.17
0.42
0.48
0.28
-0.09
-0.46
-0.71
-0.78
-0.71
-0.62
-0.61
-0.73
-0.99
-1.33
-1.68
-1.98
-2.17
-2.26
-2.26
-2.23
-2.24
-2.34
-2.60
-3.00
-3.48
-3.94
-4.24
-4.30
-4.17
-4.01
-4.05
-4.47
-5.29
-6.33
-7.26
-7.80
-7.86
-7.53
-7.12
-6.93
-7.15
-7.86
-8.99
-10.37
-11.62
-12.14
-11.22
-8.23
-2.99
4.04
11.79
18.97
24.46
27.78
29.05
28.84
27.74
26.11
24.06
21.53
18.53
15.28
12.16
9.53
7.66
6.58
6.16
6.15
6.29
6.35
6.19
5.77
5.11
4.32
3.51
2.79
2.24
1.89
1.77
1.86
2.08
2.23
2.02
1.12
-0.62
-3.10
-5.89
-8.41
-10.18
-11.01
-11.06
-10.70
-10.34
-10.16
-10.16
-10.22
-10.18
-9.99
-9.68
-9.37
-9.19
-9.29
-9.78
-10.72
-12.09
-13.78
-15.60
-17.29
-18.62
-19.42
-19.59
-19.09
-17.94
-16.23
-14.11
-11.79
-9.48
-7.35
-5.43
-3.68
-2.00
-0.38
1.14
2.41
3.27
3.63
3.56
3.18
2.68
2.19
1.72
1.23
0.67
0.01
-0.68
-1.36
-1.96
-2.47
-2.85
-3.05
-3.01
-2.66
-1.96
-0.95
0.28
1.65
3.13
4.75
6.56
8.49
10.34
11.83
12.73
12.94
12.58
11.92
11.21
10.58
10.03
9.46
8.79
8.03
7.28
6.67
6.26
6.03
5.86
5.65
5.35
4.98
4.62
4.32
4.06
3.77
3.35
2.79
2.13
1.53
1.13
1.02
1.19
1.53
1.88
2.11
2.14
1.97
1.65
1.28
0.98
0.83
0.89
1.12
1.42
1.68
1.81
1.78
1.63
1.42
1.23
1.11
1.09
1.19
1.38
1.60
1.80
1.90
1.86
1.71
1.47
1.23
0.99
0.79
0.61
0.47
0.40
0.43
0.58
0.83
1.12
1.41
1.71
2.07
2.53
3.07
3.55
3.79
3.62
3.00
2.04
0.95
-0.02
-0.70
-1.05
-1.13
-1.08
-0.99
-0.93
-0.93
-0.99
-1.12
-1.32
-1.61
-1.98
-2.44
-2.96
-3.48
-3.94
-4.23
-4.29
-4.10
-3.70
-3.21
-2.74
-2.35
-2.07
-1.83
-1.62
-1.43
-1.29
-1.24
-1.27
-1.28
-1.18
-0.91
-0.53
-0.14
0.13
0.19
0.06
-0.13
-0.26
-0.21
0.04
0.43
0.85
1.18
1.34
1.30
1.11
0.81
0.50
0.24
0.10
0.08
0.16
0.29
0.37
0.33
0.17
-0.07
-0.28
-0.35
-0.23
0.05
0.40
0.74
1.02
1.25
1.48
1.77
2.16
2.66
3.25
3.89
4.56
5.20
5.74
6.10
6.26
6.30
6.39
6.74
7.50
8.61
9.85
10.91
11.54
11.70
11.60
11.54
11.83
12.60
13.77
15.02
15.86
15.65
13.74
9.67
3.44
-4.33
-12.50
-19.71
-24.87
-27.53
-27.94
-26.90
-25.26
-23.66
-22.37
-21.37
-20.61
-20.07
-19.82
-19.85
-20.03
-20.14
-19.97
-19.43
-18.55
-17.42
-16.05
-14.24
-11.63
-7.87
-2.88
3.04
9.21
14.82
19.28
22.40
24.41
25.78
26.94
28.15
29.46
30.90
32.52
34.27
35.78
36.25
34.66
30.29
23.26
14.68
6.21
-0.68
-5.49
-8.88
-12.18
-16.51
-22.04
-27.85
-32.39
-34.39
-33.46
-30.23
-25.94
-21.83
-18.59
-16.32
-14.70
-13.38
-12.19
-11.23
-10.67
-10.54
-10.62
-10.51
-9.76
-8.13
-5.71
-2.92
-0.32
1.68
3.04
4.19
5.91
8.97
13.81
20.34
27.94
35.67
42.53
47.65
50.36
50.20
47.01
40.98
32.78
23.45
14.23
6.12
-0.38
-5.44
-9.74
-14.07
-18.92
-24.22
-29.42
-33.68
-36.29
-36.95
-35.80
-33.37
-30.36
-27.40
-24.96
-23.34
-22.60
-22.67
-23.27
-23.99
-24.41
-24.25
-23.46
-22.25
-20.90
-19.68
-18.66
-17.66
-16.28
-13.99
-10.25
-4.68
2.78
11.76
21.45
30.79
38.75
44.67
48.49
50.69
52.02
53.12
54.04
54.19
52.59
48.35
41.21
31.72
21.11
10.82
1.94
-5.12
-10.64
-15.34
-19.93
-24.76
-29.65
-34.03
-37.22
-38.74
-38.53
-37.00
-34.87
-32.90
-31.61
-31.24
-31.69
-32.67
-33.74
-34.38
-33.97
-31.97
-28.14
-22.71
-16.45
-10.39
-5.41
-1.78
0.98
3.90
8.06
14.00
21.51
29.70
37.47
43.93
48.70
51.92
53.96
55.27
56.23
57.12
58.09
58.99
59.28
57.98
54.01
46.64
35.92
22.75
8.60
-5.05
-17.13
-27.17
-35.11
-40.95
-44.59
-45.88
-44.87
-41.98
-38.03
-34.03
-30.82
-28.82
-28.03
-28.05
-28.36
-28.48
-28.12
-27.28
-26.15
-25.06
-24.26
-23.86
-23.74
-23.67
-23.32
-22.40
-20.50
-17.16
-11.90
-4.39
5.30
16.51
28.10
38.83
47.70
54.38
59.13
62.52
64.88
65.96
64.92
60.78
53.09
42.36
30.03
17.95
7.50
-0.95
-8.13
-15.23
-23.06
-31.41
-39.05
-44.38
-46.27
-44.76
-41.05
-36.88
-33.76
-32.36
-32.36
-32.81
-32.71
-31.49
-29.20
-26.38
-23.78
-22.00
-21.30
-21.46
-21.86
-21.55
-19.49
-14.85
-7.27
2.88
14.53
26.27
36.68
44.91
50.77
54.67
57.31
59.36
61.14
62.57
63.15
62.20
59.04
53.21
44.67
33.84
21.53
8.72
-3.68
-14.97
-24.73
-32.71
-38.72
-42.61
-44.30
-43.96
-42.05
-39.34
-36.64
-34.61
-33.52
-33.19
-33.17
-32.92
-32.18
-30.96
-29.53
-28.21
-27.18
-26.39
-25.58
-24.28
-21.93
-17.92
-11.75
-3.26
7.19
18.66
29.83
39.42
46.64
51.46
54.54
56.89
59.34
62.08
64.42
65.04
62.49
55.86
45.38
32.44
19.18
7.57
-1.37
-7.97
-13.56
-19.55
-26.62
-34.22
-40.86
-44.91
-45.39
-42.44
-37.16
-31.08
-25.51
-21.17
-18.11
-15.89
-14.04
-12.22
-10.27
-8.14
-5.87
-3.62
-1.94
-1.73
-4.04
-9.48
-17.53
-26.44
-33.60
-36.50
-33.78
-25.62
-13.59
0.19
13.88
26.28
36.86
45.36
51.65
55.61
57.32
56.98
54.85
51.06
45.68
38.87
31.05
22.90
15.09
7.92
1.17
-5.66
-12.91
-20.27
-26.75
-31.07
-32.29
-30.38
-26.30
-21.58
-17.72
-15.56
-15.09
-15.59
-16.15
-16.07
-15.13
-13.53
-11.63
-9.81
-8.34
-7.55
-7.86
-9.67
-13.11
-17.71
-22.33
-25.40
-25.52
-22.04
-15.24
-6.26
3.49
12.82
21.05
27.94
33.44
37.47
39.85
40.38
39.00
35.83
31.15
25.34
18.85
12.21
5.99
0.64
-3.69
-7.21
-10.41
-13.76
-17.38
-20.95
-23.83
-25.38
-25.34
-23.91
-21.73
-19.51
-17.78
-16.77
-16.36
-16.30
-16.36
-16.45
-16.55
-16.69
-16.77
-16.57
-15.81
-14.30
-12.08
-9.46
-6.85
-4.53
-2.45
-0.16
2.99
7.49
13.42
20.24
26.99
32.62
36.32
37.79
37.17
34.84
31.25
26.73
21.49
15.83
10.09
4.70
-0.05
-4.34
-8.71
-13.92
-20.23
-26.88
-32.01
-33.31
-28.96
-18.71
-4.29
10.90
22.87
28.47
26.52
18.27
6.85
-3.89
-10.74
-12.23
-8.76
-2.13
5.44
12.09
16.46
17.43
14.09
5.99
-6.01
-19.24
-29.79
-33.97
-30.19
-19.99
-7.40
2.91
7.89
7.37
3.62
-0.29
-2.16
-1.60
0.37
2.25
2.84
1.52
-1.87
-7.08
-13.47
-19.85
-24.71
-26.72
-25.36
-21.23
-15.72
-10.19
-5.26
-0.64
4.44
10.43
16.99
23.00
27.04
28.00
25.47
19.88
12.31
4.30
-2.64
-7.39
-9.52
-9.29
-7.24
-3.72
1.40
8.49
17.66
28.19
38.57
47.02
52.31
54.20
53.36
50.56
45.95
38.82
28.23
13.92
-2.97
-20.03
-34.54
-44.64
-50.02
-51.68
-50.93
-48.40
-43.60
-35.49
-23.56
-8.69
6.81
20.07
28.91
32.63
31.93
28.15
22.36
15.03
6.35
-3.24
-12.72
-20.68
-25.92
-28.11
-27.78
-25.98
-23.57
-20.83
-17.55
-13.37
-8.34
-3.01
1.82
5.53
7.88
8.93
8.76
7.28
4.33
-0.05
-5.43
-11.01
-15.89
-19.41
-21.19
-21.04
-18.75
-14.13
-7.26
1.26
10.27
18.32
24.26
27.62
28.49
27.19
23.85
18.47
11.29
3.24
-4.14
-9.21
-11.07
-9.93
-6.92
-3.41
-0.21
2.74
6.09
10.47
15.97
21.94
27.27
30.78
31.62
29.40
24.15
16.23
6.38
-4.32
-14.57
-23.02
-28.73
-31.47
-31.73
-30.42
-28.33
-25.66
-21.90
-16.22
-8.10
2.13
13.20
23.33
30.92
35.03
35.39
32.13
25.44
15.63
3.46
-9.61
-21.53
-30.34
-34.83
-35.04
-31.96
-26.87
-20.61
-13.35
-4.85
4.91
15.33
25.20
33.11
37.99
39.33
37.07
31.33
22.41
10.96
-1.73
-13.86
-23.56
-29.68
-32.22
-32.14
-30.64
-28.38
-25.08
-19.86
-12.08
-2.03
8.93
18.89
26.24
30.17
30.67
28.10
22.83
15.15
5.67
-4.53
-13.97
-21.33
-25.90
-27.87
-27.92
-26.66
-24.16
-19.99
-13.63
-4.96
5.32
15.78
24.60
29.98
30.61
26.01
16.77
4.53
-8.41
-19.76
-27.98
-32.60
-33.98
-32.68
-28.86
-22.18
-12.28
0.55
14.97
28.89
40.26
47.82
51.32
51.10
47.45
40.23
29.30
15.18
-0.48
-15.18
-26.59
-33.51
-36.21
-35.78
-33.18
-28.54
-21.31
-11.06
1.66
15.07
26.74
34.54
37.39
35.32
29.07
19.62
8.00
-4.60
-16.73
-26.93
-34.16
-38.22
-39.66
-39.31
-37.64
-34.53
-29.48
-22.19
-13.05
-3.22
5.68
12.16
15.28
14.86
11.37
5.72
-1.07
-8.11
-14.74
-20.46
-24.65
-26.48
-24.91
-19.12
-9.14
3.90
17.83
30.24
39.22
43.83
44.06
40.33
33.19
23.18
11.13
-1.73
-13.89
-23.91
-30.81
-34.16
-33.84
-29.86
-22.30
-11.58
1.28
14.66
26.57
35.14
38.95
37.38
30.67
19.85
6.67
-6.84
-18.80
-27.84
-33.27
-34.91
-32.85
-27.29
-18.59
-7.57
4.49
16.02
25.67
32.54
36.25
36.67
33.65
27.19
17.65
6.13
-5.69
-15.87
-22.88
-25.95
-25.11
-21.02
-14.60
-6.84
1.24
8.72
14.93
19.58
22.66
24.24
24.10
21.72
16.61
8.83
-0.77
-10.61
-19.01
-24.73
-27.27
-26.82
-23.84
-18.82
-12.19
-4.52
3.44
10.87
17.10
21.84
24.98
26.29
25.15
20.76
12.71
1.50
-11.31
-23.52
-33.05
-38.67
-40.09
-37.72
-32.19
-24.12
-14.11
-2.99
8.11
17.97
25.52
30.15
31.65
29.98
25.25
17.72
8.07
-2.47
-12.22
-19.50
-23.13
-22.72
-18.75
-12.25
-4.39
3.82
11.73
19.04
25.59
31.05
34.63
35.12
31.27
22.50
9.56
-5.38
-19.20
-29.02
-33.18
-31.74
-26.19
-18.55
-10.49
-2.82
4.38
11.27
17.91
23.91
28.45
30.40
28.65
22.46
12.01
-1.31
-15.05
-26.38
-33.09
-34.33
-30.84
-24.38
-16.86
-9.58
-2.98
3.02
8.64
13.78
18.04
20.82
21.51
19.61
14.95
7.85
-0.78
-9.58
-17.03
-21.94
-23.76
-22.65
-19.24
-14.30
-8.48
-2.25
4.01
9.88
14.94
18.75
20.92
20.98
18.46
12.97
4.64
-5.53
-15.80
-24.02
-28.44
-28.33
-24.12
-17.11
-8.83
-0.44
7.47
14.78
21.55
27.62
32.45
35.08
34.30
29.09
19.19
5.54
-9.61
-23.26
-32.68
-36.36
-34.55
-28.89
-21.49
-13.99
-7.12
-0.84
5.06
10.51
15.00
17.88
18.70
17.34
14.06
9.31
3.62
-2.43
-8.21
-13.01
-16.17
-17.27
-16.21
-13.25
-8.93
-3.95
1.00
5.34
8.67
10.83
11.83
11.74
10.64
8.62
5.77
2.37
-1.11
-4.07
-5.92
-6.25
-5.05
-2.63
0.42
3.46
6.08
8.19
9.96
11.67
13.29
14.33
13.97
11.39
6.30
-0.78
-8.55
-15.41
-20.00
-21.59
-20.23
-16.57
-11.47
-5.83
-0.38
4.39
8.15
10.74
12.05
11.98
10.38
7.22
2.72
-2.49
-7.40
-10.94
-12.33
-11.41
-8.68
-5.05
-1.44
1.54
3.79
5.64
7.50
9.57
11.59
12.87
12.53
9.91
4.98
-1.50
-8.23
-13.77
-17.01
-17.51
-15.53
-11.85
-7.42
-3.08
0.65
3.64
6.00
7.94
9.53
10.54
10.51
8.94
5.58
0.71
-4.90
-10.22
-14.24
-16.32
-16.32
-14.53
-11.52
-7.93
-4.28
-0.93
2.01
4.56
6.68
8.09
8.19
6.14
1.28
-6.43
-16.06
-25.77
-33.21
-36.34
-34.15
-27.09
-16.88
-5.91
3.58
10.17
13.42
13.69
11.79
8.66
5.20
2.27
0.57
0.56
2.28
5.26
8.68
11.62
13.43
13.83
12.99
11.31
9.32
7.49
6.20
5.65
5.78
6.28
6.75
6.81
6.30
5.34
4.24
3.31
2.75
2.55
2.58
2.64
2.59
2.39
2.04
1.63
1.22
0.89
0.69
0.64
0.71
0.83
0.86
0.71
0.32
-0.21
-0.71
-1.00
-0.96
-0.60
-0.09
0.38
0.66
0.73
0.70
0.72
0.87
1.17
1.52
1.77
1.82
1.65
1.32
0.93
0.59
0.35
0.23
0.21
0.25
0.32
0.40
0.45
0.45
0.37
0.25
0.14
0.10
0.18
0.37
0.58
0.73
0.75
0.64
0.44
0.22
0.04
-0.07
-0.10
-0.05
0.06
0.18
0.29
0.32
0.27
0.14
-0.02
-0.14
-0.21
-0.23
-0.25
-0.33
-0.47
-0.62
-0.67
-0.51
-0.11
0.44
0.98
1.30
1.28
0.91
0.35
-0.19
-0.53
-0.62
-0.52
-0.36
-0.28
-0.34
-0.50
-0.68
-0.78
-0.76
-0.60
-0.37
-0.14
0.01
0.04
-0.01
-0.09
-0.13
-0.11
-0.04
-0.00
-0.06
-0.21
-0.39
-0.51
-0.46
-0.22
0.15
0.55
0.86
0.97
0.86
0.57
0.13
-0.36
-0.84
-1.20
-1.36
-1.25
-0.84
-0.23
0.40
0.85
0.97
0.71
0.20
-0.32
-0.64
-0.62
-0.31
0.11
0.41
0.44
0.18
-0.23
-0.58
-0.68
-0.49
-0.09
0.35
0.64
0.70
0.56
0.32
0.10
-0.02
-0.05
-0.03
-0.01
-0.00
0.05
0.19
0.43
0.72
0.95
1.03
0.90
0.60
0.28
0.06
0.04
0.21
0.46
0.65
0.68
0.55
0.34
0.18
0.18
0.33
0.54
0.66
0.59
0.33
-0.02
-0.30
-0.43
-0.37
-0.21
-0.10
-0.11
-0.20
-0.25
-0.12
0.20
0.61
0.91
0.93
0.64
0.15
-0.33
-0.61
-0.61
-0.40
-0.12
0.10
0.22
0.24
0.24
0.26
0.28
0.25
0.16
0.03
-0.07
-0.08
-0.01
0.06
0.01
-0.25
-0.67
-1.13
-1.48
-1.61
-1.51
-1.26
-0.96
-0.68
-0.44
-0.21
0.01
0.19
0.30
0.30
0.20
0.03
-0.13
-0.20
-0.15
0.04
0.32
0.62
0.85
0.97
0.95
0.79
0.52
0.15
-0.27
-0.66
-0.97
-1.11
-1.05
-0.84
-0.54
-0.21
0.11
0.40
0.64
0.81
0.88
0.83
0.70
0.54
0.38
0.26
0.16
0.08
0.02
-0.02
-0.06
-0.13
-0.25
-0.41
-0.53
-0.53
-0.37
-0.07
0.27
0.50
0.56
0.43
0.19
-0.05
-0.19
-0.24
-0.23
-0.22
-0.27
-0.37
-0.46
-0.46
-0.30
0.00
0.34
0.58
0.61
0.43
0.10
-0.25
-0.51
-0.61
-0.55
-0.33
0.04
0.52
1.05
1.48
1.69
1.58
1.17
0.62
0.10
-0.19
-0.20
0.04
0.43
0.83
1.14
1.32
1.38
1.35
1.28
1.22
1.20
1.27
1.42
1.65
1.94
2.24
2.53
2.75
2.89
2.93
2.85
2.68
2.48
2.31
2.27
2.35
2.51
2.65
2.74
2.84
3.12
3.71
4.63
5.76
6.82
7.56
7.82
7.63
7.12
6.51
5.97
5.65
5.56
5.65
5.81
5.96
6.09
6.32
6.89
7.99
9.74
12.00
14.41
16.37
17.22
16.46
13.98
10.15
5.79
1.87
-0.81
-1.97
-1.77
-0.70
0.83
2.64
4.87
7.67
11.02
14.60
17.74
19.57
19.16
15.82
9.34
0.23
-10.26
-20.47
-28.85
-34.44
-37.14
-37.44
-35.97
-33.07
-28.79
-23.13
-16.46
-9.67
-3.89
0.05
1.97
2.37
1.94
1.09
-0.24
-2.44
-5.78
-10.05
-14.50
-18.15
-20.16
-20.14
-18.18
-14.66
-10.15
-5.21
-0.41
3.71
6.78
8.63
9.27
8.87
7.53
5.26
2.07
-1.91
-6.28
-10.35
-13.34
-14.52
-13.46
-10.09
-4.76
1.86
8.81
15.13
19.96
22.67
22.76
19.89
13.93
5.14
-5.63
-17.01
-27.59
-36.32
-42.79
-46.88
-48.20
-45.73
-38.15
-24.63
-5.83
15.91
37.29
55.19
67.66
74.00
74.11
67.92
55.43
37.37
15.95
-5.30
-22.55
-33.28
-37.34
-36.83
-34.70
-33.08
-32.27
-30.93
-27.18
-20.02
-9.96
1.20
11.27
18.60
22.43
22.80
20.20
15.22
8.45
0.63
-7.31
-14.32
-19.46
-22.07
-21.87
-18.86
-13.25
-5.50
3.65
13.25
22.22
29.60
34.50
36.11
33.70
26.91
16.20
3.15
-9.82
-20.32
-26.97
-30.01
-30.96
-31.42
-31.89
-31.27
-27.44
-18.75
-5.17
11.36
27.65
40.38
47.18
47.01
40.14
28.04
12.99
-2.19
-14.81
-23.08
-26.79
-27.35
-27.04
-27.76
-29.94
-32.23
-32.24
-27.92
-18.58
-5.37
9.33
22.69
32.15
35.89
33.05
24.04
10.73
-3.75
-15.73
-22.30
-22.55
-18.02
-11.95
-7.63
-6.66
-8.16
-9.38
-7.41
-0.74
10.01
22.57
34.06
42.04
44.89
41.91
33.35
20.39
5.25
-9.17
-20.16
-26.12
-27.30
-25.56
-23.30
-22.13
-21.97
-21.16
-17.62
-10.09
1.11
14.15
26.42
35.44
39.38
37.41
29.82
17.92
3.87
-9.78
-20.88
-28.32
-32.34
-34.16
-34.99
-35.20
-33.92
-29.59
-21.09
-8.59
6.24
20.82
32.58
39.55
40.60
35.49
24.93
10.75
-4.14
-16.36
-23.18
-23.68
-19.19
-12.67
-7.26
-4.66
-4.39
-4.26
-1.77
4.48
14.14
25.22
34.96
40.78
40.99
35.23
24.55
11.07
-2.61
-14.21
-22.58
-27.88
-31.16
-33.51
-35.14
-35.02
-31.45
-23.12
-10.05
6.02
22.26
35.67
43.95
45.96
41.74
32.35
19.58
5.67
-7.08
-16.88
-22.96
-25.81
-26.80
-27.38
-28.11
-28.27
-26.17
-20.21
-9.81
4.07
19.17
32.60
41.67
44.57
40.71
30.89
17.13
2.24
-10.85
-19.92
-24.10
-24.13
-21.85
-19.29
-17.74
-17.12
-16.27
-13.67
-8.34
-0.27
9.43
18.92
26.08
29.03
26.71
19.25
8.10
-4.14
-14.53
-20.76
-21.94
-18.93
-13.82
-8.96
-5.89
-4.81
-4.66
-3.85
-1.11
3.97
10.79
18.01
23.92
26.91
25.89
20.64
12.00
1.69
-8.12
-15.56
-19.70
-20.84
-20.27
-19.56
-19.76
-20.77
-21.36
-19.80
-14.72
-5.84
5.83
18.20
28.79
35.34
36.42
31.81
22.53
10.59
-1.51
-11.53
-18.11
-21.14
-21.65
-21.20
-21.00
-21.31
-21.22
-19.19
-13.95
-5.17
6.20
18.22
28.53
34.97
36.19
31.93
23.10
11.56
-0.34
-10.41
-17.28
-20.80
-21.93
-22.21
-22.90
-24.21
-25.08
-23.68
-18.39
-8.73
4.23
18.15
30.10
37.53
38.97
34.43
25.23
13.54
1.76
-8.18
-15.28
-19.64
-22.17
-24.00
-25.75
-27.06
-26.58
-22.69
-14.42
-2.07
12.64
27.00
38.18
43.92
43.15
36.23
24.79
11.23
-1.85
-12.47
-19.71
-23.86
-25.98
-27.17
-27.86
-27.48
-24.85
-18.92
-9.54
2.32
14.84
25.88
33.58
36.64
34.56
27.67
17.14
4.83
-7.07
-16.69
-23.01
-26.14
-27.02
-26.67
-25.51
-23.09
-18.50
-11.14
-1.31
9.73
20.21
28.46
33.20
33.73
29.86
21.98
11.12
-1.06
-12.58
-21.71
-27.50
-29.86
-29.28
-26.24
-20.87
-13.06
-2.96
8.65
20.38
30.61
37.92
41.34
40.32
34.70
24.89
12.14
-1.53
-13.76
-22.70
-27.79
-29.85
-30.42
-30.63
-30.45
-28.62
-23.63
-14.79
-2.85
10.18
21.80
29.99
33.51
31.98
25.67
15.45
2.91
-9.74
-20.04
-26.16
-27.64
-25.55
-21.80
-18.05
-14.79
-11.22
-6.06
1.48
10.95
20.73
28.56
32.40
30.93
23.89
12.25
-1.87
-15.56
-25.84
-30.68
-29.93
-25.34
-19.70
-15.45
-13.35
-12.29
-10.13
-5.13
2.92
12.61
21.52
27.29
28.27
23.80
14.21
0.93
-13.56
-26.06
-33.49
-34.15
-28.55
-19.36
-10.16
-3.74
-0.81
0.06
1.32
4.86
10.94
18.19
24.36
27.26
25.51
18.71
7.62
-5.82
-18.72
-27.87
-30.82
-26.89
-17.61
-6.07
4.54
12.40
17.67
21.96
27.03
33.53
40.67
46.74
50.10
49.87
45.98
38.77
28.64
16.10
2.05
-12.00
-24.22
-33.00
-37.59
-38.28
-35.96
-31.53
-25.38
-17.49
-7.78
3.41
15.06
25.67
33.57
37.25
35.70
28.61
16.75
2.06
-12.71
-24.76
-32.18
-34.56
-32.91
-28.83
-23.54
-17.38
-9.93
-0.82
9.64
20.20
29.19
35.27
37.84
36.98
33.01
26.11
16.41
