1644418158.00
64.000000
-0.00
-0.00
-0.00
-0.00
-0.00
-0.00
-0.00
-0.00
-0.00
-0.00
0.00
0.01
0.01
-0.00
-0.03
-0.05
-0.05
0.00
0.13
0.36
0.66
1.01
1.37
1.72
2.06
2.40
2.79
3.24
3.80
4.42
5.06
5.66
6.20
6.68
7.15
7.68
8.31
9.14
10.09
11.04
11.88
12.56
13.14
13.76
14.65
15.96
17.91
20.32
22.90
25.38
27.58
29.57
31.68
34.32
37.81
42.54
48.15
54.10
59.83
64.97
69.58
74.14
79.34
85.71
93.76
103.00
112.62
121.73
129.77
136.75
143.30
150.75
157.77
166.64
177.95
191.79
206.97
220.57
228.25
225.36
208.53
176.87
132.76
80.05
23.07
-34.94
-92.44
-149.16
-205.23
-260.37
-313.74
-363.87
-409.83
-450.91
-486.50
-515.74
-537.23
-549.22
-549.96
-538.37
-514.21
-478.67
-433.88
-382.45
-327.02
-269.84
-212.63
-156.66
-102.95
-52.37
-5.90
35.58
71.43
101.35
125.50
144.38
158.69
169.15
176.37
180.75
182.57
182.07
179.51
175.23
169.65
163.18
156.15
148.82
141.32
133.72
126.07
118.40
110.78
103.28
95.97
88.89
82.08
75.55
69.30
63.35
57.71
52.37
47.35
42.66
38.28
34.21
30.44
26.97
23.79
20.90
18.28
15.94
13.87
12.07
10.51
9.19
8.10
7.21
6.52
6.00
5.64
5.42
5.33
5.36
5.49
5.73
6.04
6.45
6.92
7.46
8.07
8.75
9.48
10.28
11.14
12.05
13.03
14.05
15.13
16.28
17.50
18.79
20.16
21.59
23.07
24.56
25.98
27.25
28.26
28.88
28.95
28.37
27.04
24.90
21.95
18.26
13.90
9.08
4.00
-1.11
-6.00
-10.47
-14.32
-17.42
-19.70
-21.15
-21.79
-21.71
-21.02
-19.85
-18.32
-16.54
-14.61
-12.57
-10.48
-8.34
-6.19
-4.05
-1.92
0.21
2.36
4.54
6.77
9.10
11.58
14.17
16.85
19.62
22.49
25.48
28.61
31.92
35.48
39.36
43.42
47.61
51.91
56.29
60.79
65.44
70.30
75.47
81.11
87.01
93.06
99.22
105.44
111.73
118.08
124.53
131.14
138.02
144.77
151.12
156.77
161.42
164.71
166.15
165.07
160.44
154.27
147.17
139.49
131.42
123.07
114.54
105.95
97.45
89.26
81.64
74.35
67.26
60.25
53.24
46.24
39.31
32.66
26.53
21.21
16.50
12.16
7.90
3.42
-1.49
-6.80
-12.32
-17.67
-22.53
-26.98
-31.30
-36.01
-41.62
-48.44
-56.42
-65.12
-73.88
-82.13
-89.78
-97.20
-105.15
-114.48
-125.72
-138.84
-153.26
-168.10
-182.53
-196.20
-209.27
-222.40
-236.57
-252.98
-272.84
-296.83
-324.47
-353.43
-379.57
-397.70
-403.31
-394.08
-370.94
-337.59
-299.07
-259.98
-223.22
-189.93
-160.13
-133.61
-110.49
-91.04
-75.22
-62.37
-51.27
-40.68
-29.82
-18.65
-7.81
1.79
9.43
14.88
18.45
20.83
22.90
25.41
28.89
33.57
39.39
46.07
53.16
60.03
65.88
69.83
71.02
68.78
62.79
53.30
41.08
27.30
13.23
-0.02
-11.67
-21.34
-28.81
-33.90
-36.41
-36.10
-32.93
-27.10
-19.13
-9.76
0.23
10.09
19.20
27.08
33.37
37.92
40.78
42.18
42.50
42.09
41.20
39.94
38.33
36.38
34.16
31.84
29.58
27.50
25.65
24.02
22.57
21.30
20.22
19.35
18.57
17.67
16.31
14.22
11.25
7.43
3.02
-1.69
-6.52
-11.48
-16.77
-22.61
-28.97
-35.45
-41.26
-45.37
-46.83
-45.08
-40.21
-32.97
-24.74
-17.19
-11.96
-10.31
-12.91
-19.72
-29.94
-42.10
-54.25
-64.14
-69.70
-69.36
-62.44
-49.36
-31.46
-10.61
11.30
32.70
52.50
70.00
84.73
96.41
104.94
110.54
113.71
115.01
114.73
112.76
108.61
101.80
92.17
80.06
66.14
51.06
35.42
19.76
4.82
-8.36
-18.63
-25.07
-27.32
-25.61
-20.61
-13.11
-3.90
6.29
16.49
25.69
32.97
37.93
40.96
43.21
46.21
51.30
59.24
69.81
81.92
93.86
103.77
110.14
112.06
109.31
102.21
91.46
77.99
62.86
47.30
32.56
19.86
10.21
4.24
2.12
3.35
6.80
10.80
13.56
13.73
10.88
5.62
-0.86
-7.67
-14.88
-23.77
-36.15
-53.51
-76.22
-103.48
-133.74
-165.38
-196.84
-226.46
-251.86
-269.85
-277.00
-270.93
-251.53
-221.51
-185.77
-149.77
-117.73
-91.56
-70.79
-53.52
-37.59
-21.26
-3.33
17.29
41.77
70.94
104.50
140.27
174.37
202.27
220.42
227.62
225.08
215.63
202.24
186.96
170.78
154.32
138.69
125.83
118.07
117.14
123.23
134.58
147.77
158.59
163.26
159.37
146.54
126.21
101.14
74.59
49.62
28.74
13.79
6.01
5.78
12.30
23.22
34.69
42.13
41.77
32.21
15.26
-4.39
-20.80
-28.88
-26.18
-13.44
6.08
28.13
49.11
67.00
81.32
92.60
101.66
109.29
116.20
123.09
130.55
138.87
147.75
156.39
163.74
168.95
171.50
171.29
168.30
162.47
153.76
142.28
128.47
112.90
96.03
77.69
57.20
33.67
6.60
-23.75
-56.37
-89.94
-123.43
-156.37
-188.78
-220.75
-252.10
-282.09
-309.53
-333.08
-351.49
-363.81
-369.37
-367.80
-359.18
-344.32
-325.02
-303.75
-282.97
-264.27
-247.89
-233.00
-218.70
-205.01
-193.17
-185.03
-181.58
-181.92
-183.20
-181.80
-174.88
-161.63
-143.06
-120.88
-96.28
-69.07
-38.13
-2.09
39.76
86.83
137.19
187.58
233.75
271.02
295.23
303.82
296.63
276.04
246.13
211.47
176.11
142.95
113.88
90.11
72.28
60.34
53.28
49.15
45.57
40.58
33.46
24.94
16.93
11.54
9.94
11.80
15.05
16.71
13.88
4.92
-9.85
-28.27
-47.14
-63.50
-75.63
-83.63
-89.05
-93.89
-99.40
-105.13
-108.93
-107.91
-99.92
-84.90
-65.47
-46.14
-31.80
-25.90
-29.35
-40.52
-56.37
-73.80
-90.64
-105.75
-118.40
-127.78
-132.92
-133.08
-128.35
-119.57
-107.84
-93.83
-77.68
-59.29
-39.23
-19.25
-1.83
11.10
19.67
26.80
37.33
55.87
84.55
121.58
161.80
198.61
226.48
242.69
247.60
243.69
233.94
220.82
205.98
190.85
177.08
166.57
160.95
160.62
164.33
169.41
172.57
170.86
162.49
147.17
125.92
100.78
74.32
49.07
27.13
9.80
-2.45
-9.88
-13.24
-13.64
-12.55
-11.85
-13.67
-19.86
-31.14
-46.37
-62.33
-74.53
-78.71
-72.43
-56.14
-33.00
-7.90
14.15
29.23
35.24
31.86
20.27
2.57
-18.84
-41.65
-64.16
-85.37
-104.64
-121.27
-134.17
-141.82
-142.74
-136.21
-122.87
-104.77
-85.09
-67.35
-54.51
-48.21
-48.23
-52.29
-56.33
-55.43
-45.34
-24.20
6.36
41.30
73.55
96.24
104.66
97.40
76.31
45.41
9.64
-26.31
-58.73
-85.08
-103.97
-115.03
-118.71
-116.16
-109.15
-99.99
-91.34
-85.90
-85.92
-92.51
-105.20
-121.98
-139.81
-155.59
-167.07
-173.34
-174.77
-172.47
-167.60
-160.86
-152.42
-142.21
-130.36
-117.41
-104.12
-90.93
-77.67
-63.66
-48.41
-32.35
-16.99
-4.37
4.11
8.61
11.19
15.09
23.73
39.56
63.54
94.84
131.05
168.43
202.59
229.42
246.25
252.56
249.98
241.31
229.23
215.29
199.83
182.61
163.61
143.40
122.74
101.96
80.53
57.34
31.56
3.49
-25.15
-51.61
-72.96
-86.99
-92.81
-90.96
-83.11
-71.61
-58.95
-47.30
-38.20
-32.43
-30.11
-30.78
-33.53
-37.04
-39.72
-39.95
-36.51
-29.02
-18.16
-5.37
7.56
19.18
28.68
35.90
41.07
44.54
46.61
47.55
47.67
47.28
46.65
45.90
45.00
43.86
42.50
41.07
39.84
39.05
38.77
38.97
39.45
39.99
40.38
40.39
39.81
38.44
36.07
32.54
27.64
21.14
12.94
3.20
-7.43
-17.82
-26.50
-32.13
-33.92
-31.98
-27.34
-21.59
-16.35
-12.76
-11.15
-11.16
-11.93
-12.67
-12.82
-12.30
-11.36
-10.46
-10.01
-10.34
-11.63
-13.91
-16.95
-20.20
-22.74
-23.49
-21.62
-16.95
-10.27
-3.24
2.05
3.76
0.94
-6.26
-16.67
-28.59
-40.23
-50.18
-57.58
-62.14
-64.08
-63.95
-62.51
-60.50
-58.37
-56.20
-53.69
-50.32
-45.43
-38.48
-29.04
-16.90
-2.23
14.08
30.33
44.10
52.92
55.19
50.89
41.73
30.54
20.21
12.70
8.47
6.71
5.87
4.32
0.89
-4.82
-12.29
-20.05
-25.87
-27.09
-21.22
-6.68
16.71
47.73
84.12
123.17
162.21
198.72
230.10
253.49
266.02
265.53
251.43
225.31
190.85
152.87
116.03
83.56
56.81
35.52
18.66
5.21
-5.56
-14.15
-21.10
-27.15
-33.06
-39.33
-46.02
-52.79
-59.23
-65.10
-70.50
-75.66
-80.69
-85.33
-88.88
-90.42
-89.20
-84.94
-77.94
-68.93
-58.87
-48.64
-38.88
-29.96
-22.09
-15.37
-9.92
-5.81
-3.02
-1.43
-0.83
-1.06
-2.05
-3.83
-6.50
-10.04
-14.17
-18.34
-21.85
-24.03
-24.36
-22.50
-18.42
-12.40
-5.02
2.71
9.70
14.92
17.73
17.96
15.91
12.11
7.16
1.57
-4.26
-9.90
-14.94
-19.00
-21.65
-22.52
-21.38
-18.21
-13.37
-7.72
-2.38
1.52
3.27
2.87
0.87
-1.81
-4.41
-6.60
-8.50
-10.51
-13.05
-16.34
-20.35
-24.91
-29.80
-34.77
-39.54
-43.65
-46.50
-47.40
-45.82
-41.57
-35.02
-26.97
-18.50
-10.61
-3.99
1.09
4.76
7.36
9.28
10.80
11.99
12.78
12.98
12.43
11.11
9.21
7.07
5.09
3.57
2.68
2.37
2.48
2.73
2.87
2.67
1.96
0.69
-1.07
-3.15
-5.33
-7.40
-9.31
-11.23
-13.46
-16.33
-20.00
-24.24
-28.34
-31.32
-32.17
-30.27
-25.65
-18.98
-11.42
-4.14
1.95
6.45
9.39
11.08
11.84
11.91
11.40
10.48
9.44
8.64
8.54
9.42
11.24
13.67
16.14
18.06
19.05
19.04
18.18
16.72
14.90
12.83
10.55
8.13
5.71
3.44
1.38
-0.53
-2.55
-5.01
-8.25
-12.42
-17.35
-22.54
-27.23
-30.48
-31.55
-29.97
-25.84
-19.70
-12.47
-5.14
1.46
6.78
10.60
12.99
14.18
14.53
14.47
14.39
14.58
15.06
15.61
15.78
15.13
13.41
10.73
7.61
4.76
2.80
2.04
2.29
3.07
3.77
3.94
3.42
2.30
0.77
-1.01
-3.11
-5.69
-9.00
-13.17
-18.10
-23.41
-28.43
-32.35
-34.38
-34.00
-31.08
-25.95
-19.24
-11.73
-4.13
3.02
9.34
14.55
18.44
20.84
21.76
21.37
20.01
18.18
16.34
14.83
13.76
13.04
12.42
11.66
10.61
9.32
8.01
6.94
6.27
5.89
5.48
4.58
2.86
0.26
-2.95
-6.31
-9.32
-11.64
-13.24
-14.33
-15.36
-16.94
-19.78
-24.38
-30.85
-38.68
-46.61
-52.99
-56.26
-55.38
-50.18
-41.27
-29.75
-16.87
-3.85
8.15
18.08
25.03
28.54
28.78
26.55
23.11
19.74
17.53
17.13
18.85
22.60
27.75
33.10
37.08
38.24
36.05
31.44
26.64
24.19
25.73
31.13
38.52
45.35
49.65
50.73
49.03
45.29
39.76
32.13
22.17
10.55
-1.00
-10.31
-15.86
-17.57
-16.84
-15.56
-15.02
-15.30
-15.55
-14.77
-12.65
-9.74
-7.10
-5.55
-5.28
-5.88
-6.71
-7.36
-7.75
-7.97
-8.04
-7.92
-7.68
-7.66
-8.47
-10.62
-14.06
-17.97
-20.95
-21.62
-19.33
-14.48
-8.41
-2.81
0.86
1.93
0.62
-2.05
-4.44
-4.63
-0.95
7.39
19.55
32.69
42.31
43.76
34.37
15.56
-6.66
-23.19
-25.34
-8.47
25.76
70.05
114.45
150.18
172.26
179.83
174.53
158.41
132.83
98.97
59.08
17.33
-20.76
-49.98
-67.42
-73.44
-71.36
-65.94
-61.42
-60.12
-61.93
-64.97
-66.69
-65.26
-60.34
-53.14
-45.73
-39.93
-36.51
-34.96
-34.02
-32.48
-29.95
-26.99
-24.74
-24.16
-25.40
-27.68
-29.77
-30.71
-30.18
-28.43
-25.78
-22.32
-17.83
-12.32
-6.58
-2.20
-1.02
-4.00
-10.27
-17.24
-21.50
-20.55
-14.04
-4.02
6.09
13.24
16.09
15.40
13.23
11.66
11.87
13.91
17.39
22.13
28.39
36.28
45.21
53.80
60.73
65.73
70.19
76.33
85.52
96.64
106.01
108.93
102.17
85.62
62.30
36.73
12.96
-6.32
-19.45
-25.14
-22.34
-11.22
5.61
22.81
33.88
33.74
21.22
-0.31
-24.56
-45.12
-58.18
-63.55
-63.97
-63.24
-64.59
-69.56
-77.96
-88.27
-98.26
-105.49
-107.79
-103.85
-93.63
-78.61
-61.45
-45.45
-33.57
-27.46
-27.01
-30.34
-34.53
-36.57
-34.31
-27.01
-15.39
-1.25
13.21
26.29
37.43
47.46
58.13
71.20
87.37
105.81
124.49
140.99
153.38
160.58
161.98
157.00
144.89
125.37
99.58
70.82
43.84
23.26
11.39
6.89
5.10
-0.07
-13.37
-36.05
-65.31
-95.41
-120.00
-134.23
-136.09
-126.51
-108.53
-86.21
-63.75
-44.82
-32.20
-27.35
-30.16
-38.86
-50.53
-61.87
-70.17
-73.98
-73.14
-68.44
-61.30
-53.43
-46.57
-41.99
-39.91
-39.00
-36.40
-28.58
-12.83
11.23
41.11
72.09
98.95
117.84
127.10
126.87
117.91
100.55
74.85
41.68
3.91
-33.39
-64.26
-84.04
-91.17
-87.63
-77.71
-65.95
-55.46
-47.42
-41.66
-37.61
-35.02
-33.79
-33.59
-33.66
-33.00
-30.90
-27.29
-22.58
-17.10
-10.66
-2.52
8.04
21.11
35.81
50.37
62.59
70.42
72.42
67.93
57.22
41.50
22.80
3.78
-12.83
-24.90
-31.46
-32.93
-30.84
-27.17
-23.64
-21.27
-20.28
-20.36
-20.93
-21.48
-21.57
-20.70
-18.40
-14.21
-8.08
-0.64
6.77
12.63
15.89
16.63
16.00
15.80
17.43
21.36
26.91
32.78
37.66
40.73
41.63
40.23
36.34
29.66
20.12
8.23
-4.70
-16.74
-25.89
-30.76
-31.09
-27.77
-22.52
-17.35
-13.99
-13.48
-16.16
-21.61
-28.79
-35.90
-40.60
-40.54
-34.31
-22.25
-6.69
8.80
20.90
27.84
29.98
29.24
27.76
26.64
25.52
23.10
18.23
10.89
2.41
-5.17
-9.97
-11.23
-9.57
-6.68
-4.65
-5.11
-8.53
-14.14
-20.18
-24.53
-25.37
-21.68
-13.53
-2.07
10.52
21.41
27.79
27.57
20.23
7.29
-7.66
-19.63
-23.42
-15.26
5.94
37.94
75.53
111.86
140.24
155.74
156.02
141.39
114.29
78.63
39.23
1.32
-30.27
-52.12
-63.06
-64.48
-59.50
-51.46
-42.31
-31.93
-18.60
-0.40
23.22
50.52
77.65
99.64
111.99
112.05
99.77
77.60
49.69
20.72
-5.35
-26.06
-40.58
-49.57
-54.47
-56.96
-58.57
-60.29
-62.41
-64.24
-64.21
-60.17
-50.28
-33.89
-12.32
11.09
31.65
44.56
46.37
36.23
16.44
-7.93
-30.18
-43.88
-44.76
-31.76
-7.28
23.86
55.68
82.48
99.78
104.97
97.64
79.64
54.85
28.28
4.81
-11.93
-20.50
-21.70
-18.08
-13.11
-10.26
-12.22
-20.39
-34.54
-52.85
-72.46
-90.41
-104.36
-112.94
-115.68
-112.43
-103.30
-88.86
-70.66
-51.48
-34.79
-23.69
-19.50
-21.15
-25.45
-28.39
-26.83
-19.76
-8.65
3.24
12.17
15.32
11.70
2.22
-10.76
-24.23
-35.03
-40.24
-37.36
-24.61
-1.55
30.40
67.66
104.85
136.02
156.15
162.50
155.22
136.92
111.48
82.80
53.85
26.60
2.36
-17.88
-33.30
-43.55
-48.92
-50.41
-49.40
-47.16
-44.36
-41.23
-37.78
-34.28
-31.47
-30.34
-31.74
-35.86
-42.02
-48.68
-53.70
-54.69
-49.51
-36.77
-16.44
9.93
39.31
67.78
91.26
106.32
110.67
103.55
85.73
59.49
28.33
-3.62
-32.34
-54.85
-69.75
-77.31
-78.86
-75.97
-69.78
-60.89
-49.64
-36.59
-22.81
-9.71
1.40
9.74
15.23
18.31
19.63
19.71
18.92
17.59
16.25
15.65
16.57
19.46
24.18
29.94
35.56
40.01
42.75
44.07
44.83
46.24
49.43
55.19
63.72
74.52
86.19
96.41
102.21
100.51
89.01
66.99
35.92
-0.79
-38.51
-72.56
-99.35
-117.01
-125.51
-126.27
-121.53
-113.72
-104.82
-95.79
-86.23
-74.55
-58.49
-36.31
-7.95
24.19
55.43
80.08
93.20
92.29
78.05
53.93
24.95
-3.66
-27.39
-42.85
-47.90
-41.86
-25.62
-1.63
26.48
54.50
78.32
94.48
100.49
95.03
78.20
51.77
19.06
-15.63
-47.92
-74.55
-93.89
-105.96
-111.84
-112.87
-110.35
-105.49
-99.63
-94.13
-90.16
-88.12
-87.41
-86.49
-83.32
-75.97
-63.22
-45.08
-22.90
0.83
23.04
40.97
53.14
60.11
64.43
69.86
79.87
96.08
117.43
140.52
160.85
174.37
178.46
171.94
154.74
127.49
91.88
51.12
10.07
-25.49
-50.50
-62.37
-61.89
-52.76
-40.19
-29.07
-22.86
-23.12
-29.72
-41.19
-55.17
-68.80
-79.31
-84.81
-84.99
-81.05
-75.32
-70.22
-67.40
-67.32
-69.28
-71.79
-73.19
-72.19
-68.18
-61.45
-53.12
-44.77
-37.95
-33.57
-31.46
-30.22
-27.66
-21.55
-10.65
4.64
22.11
38.48
50.48
55.91
54.33
47.00
36.26
24.66
14.37
6.84
2.74
2.21
4.85
9.70
15.30
20.00
22.59
22.87
21.74
20.71
20.91
22.29
23.52
22.68
18.36
10.53
0.61
-9.38
-17.95
-24.83
-30.86
-37.14
-44.05
-50.57
-54.56
-53.49
-45.64
-30.90
-11.14
10.18
28.97
41.84
47.15
45.52
39.59
33.16
29.95
32.53
41.53
55.54
71.59
86.05
95.54
97.86
92.39
80.17
63.38
44.82
27.29
13.07
3.60
-0.84
-1.17
0.80
3.01
3.83
2.66
-0.09
-3.39
-6.05
-7.08
-5.82
-1.86
4.81
13.55
22.82
30.28
33.40
30.48
21.46
8.23
-5.88
-17.05
-22.09
-19.27
-8.61
8.17
28.23
48.31
65.48
77.66
83.80
83.67
77.51
65.83
49.40
29.45
7.68
-13.80
-33.06
-48.77
-60.56
-68.82
-74.33
-77.65
-78.96
-77.92
-74.04
-67.07
-57.38
-46.01
-34.43
-24.08
-15.90
-10.11
-6.42
-4.46
-4.13
-5.76
-9.73
-16.00
-23.71
-31.23
-36.68
-38.63
-36.73
-31.80
-25.54
-19.79
-15.85
-14.10
-14.03
-14.55
-14.52
-13.25
-10.66
-7.23
-3.74
-0.91
0.93
1.97
2.84
4.28
6.82
10.52
15.04
19.81
24.23
27.73
29.61
29.05
25.34
18.37
9.14
-0.25
-7.20
-9.52
-6.40
1.35
11.69
22.08
30.32
34.93
35.19
31.02
22.97
12.22
0.55
-9.86
-16.96
-19.37
-16.79
-10.14
-1.24
7.82
15.37
20.83
24.87
29.04
34.91
43.20
53.22
62.96
69.89
71.93
68.27
59.45
47.03
32.85
18.45
4.91
-7.06
-16.84
-23.82
-27.52
-27.90
-25.57
-21.74
-17.83
-15.03
-13.90
-14.27
-15.54
-17.04
-18.43
-19.80
-21.57
-24.15
-27.65
-31.72
-35.54
-38.10
-38.54
-36.42
-31.95
-25.87
-19.27
-13.19
-8.36
-5.10
-3.28
-2.59
-2.69
-3.34
-4.36
-5.73
-7.43
-9.44
-11.69
-13.97
-15.92
-17.04
-16.92
-15.36
-12.58
-9.20
-6.04
-3.88
-3.20
-4.10
-6.38
-9.58
-12.96
-15.52
-16.04
-13.39
-6.95
2.98
15.01
26.97
36.42
41.31
40.53
34.02
22.73
8.29
-7.40
-22.48
-35.42
-45.31
-51.94
-55.76
-57.54
-57.92
-56.93
-53.85
-47.59
-37.35
-23.36
-7.20
8.54
21.14
28.76
31.14
29.44
25.74
22.21
20.64
22.28
27.94
37.94
51.99
68.90
86.59
102.29
113.17
117.12
113.34
102.50
86.55
68.16
50.03
34.52
23.17
16.55
13.99
13.68
12.98
9.07
-0.08
-14.93
-34.05
-54.46
-72.63
-85.62
-91.82
-91.14
-84.60
-73.74
-60.15
-45.39
-30.97
-18.34
-8.76
-2.92
-0.78
-1.39
-3.29
-4.94
-5.30
-4.15
-2.06
-0.00
1.22
1.37
0.88
0.44
0.49
0.84
0.75
-0.62
-3.61
-7.66
-11.46
-13.46
-12.62
-8.85
-3.18
2.67
6.81
7.76
4.93
-1.05
-8.22
-13.52
-13.54
-5.57
11.29
35.51
63.23
89.30
108.69
117.88
115.59
102.73
81.74
55.73
27.77
0.54
-23.78
-43.48
-57.37
-64.92
-66.46
-63.14
-56.87
-49.75
-43.62
-39.47
-37.38
-36.53
-35.46
-32.44
-25.62
-13.34
5.53
31.09
61.84
94.19
122.78
141.65
146.01
134.00
107.29
70.47
29.29
-11.03
-46.85
-76.05
-97.51
-110.61
-115.22
-112.11
-103.17
-91.11
-78.67
-67.69
-58.96
-52.39
-47.47
-43.68
-40.25
-35.95
-28.97
-17.50
-0.47
21.91
47.87
74.66
99.03
117.96
129.06
130.89
123.09
106.51
83.26
56.53
30.22
8.17
-6.62
-12.64
-10.18
-1.23
11.10
23.28
32.02
34.95
30.93
20.18
4.02
-15.62
-36.59
-56.93
-74.88
-88.97
-98.19
-102.23
-101.83
-98.69
-94.85
-91.69
-89.21
-85.93
-79.65
-68.69
-52.66
-32.55
-10.22
12.16
32.43
48.20
56.87
56.03
44.42
22.93
-5.11
-34.49
-59.56
-75.81
-81.06
-75.87
-63.22
-47.54
-33.27
-23.31
-17.94
-14.63
-9.17
2.33
21.55
47.16
75.49
102.27
124.06
138.87
145.65
143.63
131.92
110.23
79.85
44.34
9.03
-20.37
-39.64
-47.23
-44.37
-34.24
-20.65
-7.13
3.52
9.22
8.48
0.55
-14.17
-33.72
-54.70
-72.99
-85.05
-89.06
-85.54
-76.96
-66.68
-57.60
-51.28
-47.82
-46.24
-45.25
-43.77
-41.36
-38.34
-35.61
-34.38
-35.59
-39.30
-44.18
-47.74
-47.08
-40.13
-26.52
-7.83
13.03
32.72
48.30
57.54
59.13
52.80
39.68
22.47
5.04
-8.63
-15.95
-16.80
-13.59
-10.19
-10.30
-15.96
-26.84
-40.59
-53.76
-62.86
-65.31
-60.03
-47.77
-30.98
-13.21
1.93
11.79
15.49
13.91
9.16
3.74
-0.31
-1.89
-0.96
1.71
4.77
6.91
7.30
6.05
4.43
4.45
8.13
16.61
29.37
44.16
57.49
65.75
66.57
59.87
48.15
35.86
27.76
27.10
34.20
46.30
58.54
65.83
64.65
54.06
35.65
12.55
-11.68
-33.96
-52.10
-64.85
-71.83
-73.48
-71.00
-65.99
-60.05
-54.32
-49.33
-44.98
-40.83
-36.42
-31.45
-25.80
-19.55
-12.92
-6.31
-0.39
3.91
5.60
4.08
-0.41
-6.39
-11.40
-12.83
-8.86
0.63
13.93
28.03
39.77
46.96
48.96
46.66
41.88
36.68
32.85
31.51
33.10
37.33
43.10
48.66
51.91
50.94
44.63
33.16
18.06
1.89
-12.44
-22.57
-27.28
-26.79
-22.57
-16.93
-12.31
-10.69
-13.18
-19.72
-29.21
-39.73
-49.05
-55.31
-57.51
-55.74
-50.99
-44.67
-38.03
-31.80
-26.00
-20.20
-13.82
-6.55
1.34
8.93
14.86
17.75
16.92
12.90
7.38
2.73
1.04
3.18
8.56
15.43
21.81
26.27
28.36
28.43
27.14
24.91
21.80
17.68
12.58
6.99
1.86
-1.78
-3.20
-2.31
0.32
3.65
6.55
8.09
7.67
5.09
0.40
-5.97
-13.09
-19.49
-23.34
-22.92
-17.32
-6.84
6.85
21.14
33.29
41.31
44.65
44.29
42.40
41.37
42.95
47.64
54.64
62.25
68.50
71.64
70.47
64.45
53.80
39.53
23.37
7.50
-5.80
-14.77
-18.59
-17.62
-13.32
-7.84
-3.54
-2.27
-4.80
-10.42
-17.14
-22.45
-24.28
-21.97
-16.45
-9.71
-3.89
-0.42
0.32
-1.24
-4.46
-8.92
-14.52
-21.33
-29.24
-37.69
-45.68
-51.90
-55.18
-54.85
-51.07
-44.79
-37.35
-29.80
-22.36
-14.35
-4.73
7.16
20.82
34.48
45.70
52.32
53.52
50.13
44.34
38.83
35.91
36.73
41.28
48.46
56.67
64.36
70.42
74.36
76.22
76.26
74.85
72.31
68.91
65.00
60.96
57.14
53.71
50.52
47.19
43.20
38.18
31.98
24.74
16.68
7.94
-1.43
-11.34
-21.56
-31.62
-40.97
-49.25
-56.43
-62.79
-68.65
-74.01
-78.36
-80.74
-80.11
-75.89
-68.30
-58.42
-47.85
-38.08
-30.10
-24.17
-20.01
-17.19
-15.41
-14.56
-14.35
-13.93
-11.92
-6.96
1.51
12.56
23.86
32.58
36.73
36.17
32.66
28.97
27.46
28.97
32.53
36.11
37.69
36.16
31.55
24.55
15.86
5.78
-5.60
-17.98
-30.43
-41.33
-48.85
-51.68
-49.72
-44.26
-37.74
-32.91
-31.93
-35.69
-43.46
-53.19
-62.16
-67.74
-68.11
-62.63
-51.88
-37.41
-21.39
-6.10
6.57
15.57
20.83
23.23
24.06
24.54
25.36
26.64
28.13
29.57
30.87
32.07
33.23
34.11
34.24
33.08
30.43
26.76
23.31
21.61
22.89
27.28
33.52
39.28
42.02
40.08
33.31
23.04
11.31
-0.03
-9.93
-18.19
-24.99
-30.36
-34.01
-35.45
-34.67
-32.45
-30.37
-30.35
-33.87
-41.22
-51.17
-61.24
-68.45
-70.31
-65.61
-54.75
-39.44
-22.10
-5.11
9.71
21.27
29.15
33.44
34.50
32.92
29.36
24.54
19.23
14.16
9.86
6.57
4.11
1.90
-0.72
-4.13
-8.07
-11.57
-13.18
-11.49
-5.71
3.86
15.77
27.77
37.52
43.36
44.91
43.14
39.88
36.86
34.96
33.77
31.98
28.25
22.13
14.53
7.35
2.63
1.60
4.13
8.90
13.99
17.72
19.35
19.34
19.35
21.54
27.78
38.78
53.63
69.94
84.46
93.97
96.15
89.86
75.22
53.38
26.41
-2.86
-31.07
-54.78
-71.28
-79.31
-79.36
-73.33
-63.81
-53.30
-43.73
-36.55
-32.94
-33.80
-39.46
-49.22
-61.03
-71.83
-78.45
-78.77
-72.53
-61.35
-48.10
-35.86
-26.92
-22.25
-21.32
-22.47
-23.32
-21.50
-15.34
-4.44
10.15
26.40
41.92
54.62
63.03
66.23
63.70
55.59
43.12
28.87
16.43
9.27
9.29
15.96
26.43
36.71
43.14
43.52
37.47
26.15
11.70
-3.20
-15.88
-24.11
-26.76
-24.20
-18.22
-11.33
-5.64
-2.09
-0.21
1.24
3.36
6.47
9.88
12.23
12.01
8.05
-0.13
-12.09
-26.32
-40.37
-51.30
-56.46
-54.38
-45.38
-31.37
-15.32
-0.11
12.29
21.13
26.83
30.63
34.48
40.77
51.91
69.47
93.14
120.00
144.81
161.44
164.77
152.55
126.06
89.52
48.57
8.55
-26.55
-54.32
-73.63
-84.22
-86.54
-81.92
-72.61
-61.63
-52.05
-46.24
-45.13
-47.90
-52.29
-55.31
-54.19
-47.21
-34.12
-16.15
4.45
24.93
42.68
55.59
62.33
62.50
56.76
46.78
35.10
24.62
17.90
16.42
20.23
28.09
37.94
47.56
54.96
58.53
57.04
49.81
37.02
19.93
0.87
-17.33
-32.32
-43.05
-50.00
-54.65
-58.51
-62.31
-65.79
-68.20
-69.03
-68.52
-67.48
-66.84
-67.01
-67.83
-68.82
-69.69
-70.65
-72.08
-73.96
-75.37
-74.52
-69.37
-58.57
-42.15
-21.65
0.45
21.49
39.33
52.63
60.79
63.83
62.32
57.48
51.10
45.20
41.33
39.95
40.18
40.21
38.33
33.73
26.93
19.29
12.37
7.20
4.11
2.88
3.05
4.10
5.29
5.63
3.84
-1.23
-10.10
-22.29
-36.37
-50.33
-62.21
-70.63
-75.09
-76.07
-74.86
-73.09
-72.24
-73.06
-75.34
-78.04
-79.71
-79.05
-75.33
-68.49
-59.01
-47.59
-34.95
-21.75
-8.65
3.59
14.15
22.27
27.51
29.99
30.36
29.72
29.33
30.42
34.03
40.88
51.06
63.64
76.58
87.03
92.41
91.52
85.28
76.49
68.49
63.62
62.07
61.93
60.11
53.91
42.05
25.12
5.14
-15.24
-33.60
-48.33
-58.93
-65.88
-70.38
-73.92
-77.87
-83.02
-89.34
-95.94
-101.22
-103.31
-100.64
-92.47
-79.36
-63.05
-46.13
-31.27
-20.44
-14.34
-12.21
-12.25
-12.19
-10.18
-5.39
1.75
9.78
16.84
21.37
22.59
20.61
16.24
10.56
4.73
-0.13
-3.08
-3.42
-1.01
3.58
9.07
13.86
16.60
16.73
14.69
11.76
9.43
8.69
9.49
10.68
10.57
7.77
1.98
-5.77
-13.40
-18.66
-20.09
-17.60
-12.52
-7.13
-3.72
-3.77
-7.48
-13.70
-20.50
-25.77
-27.97
-26.37
-20.93
-11.87
0.77
17.19
37.41
60.63
84.80
106.79
123.04
130.70
128.41
116.70
97.69
74.41
50.00
27.17
7.85
-6.87
-16.73
-22.28
-24.55
-24.74
-23.78
-22.08
-19.65
-16.45
-12.77
-9.45
-7.58
-7.99
-10.73
-14.71
-18.02
-18.57
-14.93
-7.01
3.86
15.32
24.71
29.77
29.11
22.33
9.89
-7.02
-26.64
-46.69
-64.64
-78.02
-84.99
-84.90
-78.38
-67.07
-52.86
-37.24
-21.15
-5.20
9.79
22.65
31.96
36.60
36.21
31.40
23.47
14.07
4.74
-3.36
-9.50
-13.44
-15.40
-15.92
-15.65
-15.08
-14.22
-12.63
-9.63
-4.68
2.30
10.88
20.15
28.92
35.99
40.36
41.44
39.05
33.40
24.99
14.54
2.99
-8.53
-18.78
-26.71
-31.83
-34.37
-35.06
-34.80
-34.04
-32.66
-30.05
-25.60
-19.10
-10.91
-1.80
7.34
15.73
22.76
27.96
30.95
31.48
29.54
25.53
20.21
14.58
9.59
5.93
3.83
3.05
2.89
2.57
1.51
-0.39
-2.64
-4.35
-4.57
-2.69
1.22
6.39
11.52
15.09
15.85
13.17
7.36
-0.21
-7.42
-11.84
-11.55
-5.79
4.57
16.94
27.68
33.16
31.04
21.09
5.32
-12.77
-29.36
-41.36
-47.08
-46.35
-40.29
-30.88
-20.52
-11.50
-5.41
-2.66
-2.44
-2.92
-2.14
1.22
7.23
14.81
22.23
27.86
30.75
30.83
28.75
25.60
22.44
20.11
19.04
19.26
20.50
22.24
23.73
24.12
22.56
18.54
12.11
4.00
-4.50
-12.00
-17.40
-20.26
-20.84
-19.88
-18.40
-17.42
-17.85
-20.48
-25.78
-33.56
-42.65
-50.86
-55.47
-54.09
-45.60
-30.69
-11.65
8.31
26.03
38.99
45.76
46.03
40.59
31.23
20.51
11.23
5.76
5.33
9.69
17.35
26.21
34.40
40.87
45.61
49.49
53.84
59.75
67.59
76.70
85.57
92.25
95.01
92.84
85.66
74.31
60.35
45.74
32.43
21.97
15.12
11.58
10.07
8.76
5.96
0.77
-6.73
-15.51
-24.02
-30.63
-33.93
-33.10
-27.95
-19.00
-7.24
6.14
20.01
33.24
44.65
52.73
55.73
52.25
41.89
25.90
7.18
-10.51
-23.63
-30.03
-29.52
-23.56
-14.49
-4.75
3.78
9.96
13.39
14.24
13.26
11.64
10.77
11.88
15.50
21.21
27.67
33.02
35.51
34.03
28.42
19.34
8.03
-4.19
-16.21
-27.16
-36.39
-43.14
-46.44
-45.23
-38.70
-26.86
-10.75
7.69
26.22
42.95
56.59
66.27
70.95
69.10
58.97
39.56
11.58
-22.14
-57.08
-88.37
-112.21
-126.80
-132.53
-131.23
-125.22
-116.55
-106.51
-95.58
-83.56
-69.87
-53.84
-35.06
-13.70
9.30
32.11
52.22
66.85
73.51
70.59
57.84
36.41
8.68
-22.22
-52.99
-80.63
-102.99
-118.98
-128.65
-132.83
-132.71
-129.32
-123.33
-115.06
-104.69
-92.53
-78.96
-64.29
-48.66
-32.14
-15.07
1.55
16.05
26.54
31.70
31.38
26.86
20.36
14.15
9.85
7.98
8.17
9.62
11.68
14.07
16.80
19.94
23.37
26.81
29.92
32.59
34.93
37.17
39.47
41.84
44.17
46.40
48.58
50.82
53.24
55.87
58.52
60.74
61.74
60.47
56.01
48.10
37.79
27.60
21.06
21.49
30.62
47.48
68.45
88.19
101.44
104.68
97.15
80.86
59.64
37.82
18.86
4.60
-4.72
-9.98
-12.43
-13.15
-12.85
-12.07
-11.26
-10.96
-11.55
-13.06
-15.08
-16.97
-18.18
-18.61
-18.70
-19.21
-20.88
-24.00
-28.28
-32.93
-36.88
-39.18
-39.18
-36.79
-32.35
-26.64
-20.64
-15.36
-11.69
-10.19
-11.00
-13.70
-17.47
-21.25
-24.28
-26.42
-28.29
-30.93
-35.21
-41.30
-48.43
-55.26
-60.45
-63.32
-64.02
-63.30
-61.99
-60.50
-58.70
-56.14
-52.42
-47.42
-41.50
-35.22
-29.25
-24.07
-19.87
-16.59
-13.90
-11.48
-9.11
-6.77
-4.70
-3.24
-2.69
-3.13
-4.36
-5.95
-7.43
-8.41
-8.81
-8.79
-8.76
-9.09
-10.07
-11.83
-14.43
-17.90
-22.22
-27.20
-32.33
-36.68
-39.13
-38.65
-34.75
-27.63
-18.23
-7.81
2.38
11.39
18.78
24.49
28.72
31.73
33.79
35.11
35.88
36.28
36.49
36.66
36.88
37.16
37.41
37.51
37.40
37.14
36.88
36.80
37.04
37.54
38.04
38.20
37.69
36.35
34.27
31.71
28.98
26.31
23.73
21.03
17.95
14.27
10.00
5.37
0.77
-3.47
-7.16
-10.35
-13.30
-16.39
-20.07
-24.76
-30.71
-37.84
-45.57
-52.83
-58.24
-60.46
-58.65
-52.81
-43.76
-32.89
-21.65
-11.18
-2.05
5.63
11.97
17.05
20.83
23.19
24.14
23.90
22.92
21.69
20.61
19.86
19.42
19.18
19.06
19.07
19.27
19.63
20.06
20.35
20.22
19.44
17.86
15.46
12.37
8.88
5.32
2.03
-0.75
-2.96
-4.79
-6.58
-8.85
-12.09
-16.62
-22.41
-29.01
-35.54
-40.86
-43.87
-43.76
-40.32
-33.93
-25.42
-15.85
-6.18
2.87
10.90
17.71
23.24
27.46
30.39
32.08
32.65
32.29
31.26
29.84
28.31
26.93
25.91
25.30
25.07
25.02
24.92
24.55
23.81
22.67
21.23
19.61
17.87
16.05
14.11
11.99
9.65
7.07
4.29
1.37
-1.68
-4.85
-8.11
-11.43
-14.76
-18.10
-21.58
-25.40
-29.73
-34.50
-39.22
-42.98
-44.69
-43.39
-38.67
-30.85
-20.87
-9.99
0.53
9.83
17.44
23.29
27.57
30.51
32.37
33.33
33.58
33.27
32.62
31.79
30.88
29.92
28.88
27.73
26.59
25.58
24.90
24.66
24.82
25.16
25.40
25.21
24.39
22.93
20.92
18.58
16.14
13.70
11.25
8.68
5.85
2.66
-0.89
-4.70
-8.60
-12.46
-16.22
-19.93
-23.77
-28.01
-32.84
-38.31
-44.11
-49.52
-53.48
-54.89
-52.92
-47.30
-38.52
-27.60
-15.86
-4.53
5.48
13.72
20.07
24.68
27.79
29.62
30.41
30.32
29.58
28.43
27.17
26.10
25.44
25.28
25.54
26.00
26.49
26.95
27.40
27.96
28.64
29.29
29.62
29.28
28.02
25.82
22.93
19.74
16.65
13.95
11.68
9.64
7.48
4.86
1.57
-2.37
-6.74
-11.17
-15.32
-19.00
-22.24
-25.23
-28.28
-31.70
-35.64
-40.07
-44.68
-48.86
-51.85
-52.81
-51.08
-46.39
-38.91
-29.29
-18.51
-7.61
2.41
10.86
17.36
21.87
24.60
25.93
26.25
25.86
24.98
23.76
22.32
20.81
19.38
18.13
17.18
16.56
16.32
16.44
16.92
17.62
18.35
18.81
18.72
17.90
16.38
14.34
12.06
9.78
7.63
5.55
3.36
0.90
-1.93
-5.04
-8.25
-11.33
-14.15
-16.67
-19.04
-21.55
-24.53
-28.26
-32.85
-38.05
-43.19
-47.26
-49.10
-47.78
-42.92
-34.89
-24.69
-13.67
-3.10
6.10
13.53
19.11
23.01
25.40
26.41
26.16
24.84
22.75
20.28
17.89
15.94
14.62
13.93
13.64
13.50
13.24
12.78
12.20
11.71
11.53
11.76
12.31
12.94
13.33
13.19
12.30
10.53
7.93
4.73
1.39
-1.47
-3.25
-3.64
-2.79
-1.37
-0.27
-0.35
-2.13
-5.60
-10.40
-15.94
-21.69
-27.25
-32.39
-36.98
-40.96
-44.21
-46.49
-47.45
-46.66
-43.71
-38.42
-30.92
-21.78
-11.84
-2.06
6.71
13.90
19.24
22.75
24.67
25.30
25.05
24.35
23.62
23.18
23.21
23.68
24.35
24.91
25.09
24.79
24.15
23.41
22.86
22.61
22.60
22.62
22.41
21.84
20.92
19.77
18.52
17.26
15.95
14.49
12.76
10.67
8.23
5.44
2.39
-0.90
-4.36
-7.90
-11.36
-14.58
-17.34
-19.57
-21.30
-22.84
-24.64
-27.26
-31.13
-36.24
-42.03
-47.35
-50.82
-51.17
-47.76
-40.76
-31.08
-20.03
-8.90
1.28
9.94
16.81
21.79
24.91
26.27
26.16
25.04
23.49
22.03
20.97
20.36
20.02
19.67
19.16
18.50
17.86
17.47
17.48
17.87
18.50
19.15
19.62
19.79
19.57
18.94
17.89
16.43
14.65
12.64
10.48
8.21
5.81
3.21
0.37
-2.71
-5.98
-9.31
-12.58
-15.66
-18.44
-20.90
-23.10
-25.23
-27.63
-30.68
-34.64
-39.47
-44.64
-49.25
-52.19
-52.50
-49.64
-43.68
-35.26
-25.33
-14.96
-5.08
3.61
10.71
16.02
19.56
21.50
22.10
21.71
20.71
19.42
18.12
16.94
15.97
15.19
14.59
14.17
14.00
14.14
14.63
15.39
16.21
16.83
16.96
16.46
15.35
13.79
12.06
10.43
9.00
7.71
6.28
4.38
1.73
-1.72
-5.72
-9.81
-13.53
-16.63
-19.15
-21.41
-23.85
-26.82
-30.48
-34.74
-39.29
-43.63
-47.10
-48.94
-48.51
-45.46
-39.89
-32.30
-23.50
-14.24
-5.07
3.72
11.96
19.40
25.67
30.33
33.09
34.00
33.44
32.03
30.42
28.98
27.83
26.83
25.78
24.63
23.52
22.79
22.77
23.58
25.04
26.66
27.82
27.95
26.78
24.40
21.20
17.72
14.44
11.60
9.20
7.03
4.79
2.30
-0.55
-3.68
-6.93
-10.14
-13.17
-15.95
-18.52
-20.94
-23.37
-26.05
-29.28
-33.22
-37.80
-42.53
-46.53
-48.66
-47.93
-43.84
-36.56
-26.91
-16.17
-5.64
3.64
11.11
16.62
20.43
22.96
24.67
25.92
26.83
27.39
27.51
27.10
26.22
25.06
23.86
22.80
21.95
21.22
20.43
19.37
17.92
16.16
14.30
12.67
11.47
10.76
10.32
9.81
8.93
7.57
5.87
4.12
2.60
1.43
0.48
-0.53
-1.88
-3.74
-6.07
-8.69
-11.35
-13.90
-16.28
-18.54
-20.81
-23.21
-25.85
-28.83
-32.26
-36.16
-40.33
-44.26
-47.08
-47.83
-45.75
-40.60
-32.86
-23.49
-13.66
-4.35
3.91
10.90
16.60
20.99
23.94
25.35
25.22
23.84
21.67
19.26
17.12
15.57
14.74
14.55
14.84
15.37
15.96
16.45
16.78
16.90
16.77
16.39
15.71
14.72
13.45
11.95
10.23
8.33
6.23
3.92
1.39
-1.33
-4.20
-7.14
-10.03
-12.74
-15.12
-17.11
-18.80
-20.45
-22.45
-25.16
-28.76
-33.14
-37.82
-42.07
-45.00
-45.78
-43.84
-39.05
-31.72
-22.63
-12.79
-3.24
5.22
12.07
17.16
20.62
22.66
23.52
23.44
22.66
21.44
20.09
18.85
17.94
17.41
17.19
17.07
16.89
16.58
16.23
16.08
16.32
16.97
17.78
18.28
18.05
16.84
14.79
12.25
9.68
7.28
4.98
2.47
-0.56
-4.20
-8.25
-12.32
-16.05
-19.24
-22.03
-24.72
-27.64
-31.02
-34.95
-39.41
-44.42
-50.03
-56.20
-62.66
-68.67
-73.20
-75.16
-73.97
-69.74
-63.38
-56.17
-49.31
-43.49
-38.76
-34.77
-31.05
-27.12
-22.48
-16.35
-7.57
5.23
23.05
45.93
72.69
101.10
128.71
153.60
175.06
193.54
210.24
226.31
242.31
258.01
272.55
284.96
294.42
300.44
302.83
301.46
296.23
287.00
273.74
256.62
236.11
212.90
187.80
161.42
134.02
105.42
75.18
42.91
8.53
-27.63
-64.83
-102.05
-138.21
-172.07
-202.31
-227.43
-245.85
-256.07
-257.01
-248.43
-231.25
-207.72
-181.15
-155.32
-133.64
-118.32
-109.95
-107.73
-109.94
-114.63
-120.03
-124.49
-126.48
-124.60
-117.98
-106.79
-92.63
-78.12
-66.10
-58.52
-55.74
-56.47
-58.47
-59.44
-57.88
-53.32
-45.92
-35.95
-23.37
-7.90
10.50
30.99
51.55
69.25
80.95
84.23
78.17
63.63
43.06
19.90
-2.12
-19.63
-30.05
-31.94
-25.29
-11.66
5.88
23.22
36.12
41.24
37.27
25.30
8.51
-9.09
-24.10
-34.70
-40.85
-43.47
-43.48
-41.15
-36.23
-28.66
-19.18
-9.46
-1.41
3.73
6.01
6.57
6.73
6.99
6.66
4.29
-1.23
-9.80
-19.84
-28.82
-34.29
-34.75
-30.07
-21.38
-10.54
0.28
8.96
13.60
12.72
5.65
-6.91
-22.68
-38.01
-48.79
-51.69
-45.37
-30.98
-11.83
7.84
24.25
35.13
40.09
40.16
37.02
32.23
26.87
21.39
15.88
10.23
4.40
-1.45
-6.95
-11.63
-15.17
-17.63
-19.53
-21.65
-24.68
-28.82
-33.61
-38.05
-41.11
-42.17
-41.26
-39.04
-36.53
-34.67
-33.96
-34.47
-35.88
-37.84
-40.07
-42.56
-45.38
-48.47
-51.46
-53.70
-54.44
-53.22
-50.11
-45.75
-41.12
-37.13
-34.28
-32.50
-31.27
-29.91
-27.82
-24.68
-20.40
-15.18
-9.43
-3.78
1.06
4.45
6.05
5.98
4.77
3.20
2.00
1.61
2.11
3.25
4.53
5.41
5.35
3.94
0.99
-3.36
-8.74
-14.57
-20.32
-25.70
-30.74
-35.74
-41.15
-47.29
-54.14
-61.21
-67.56
-72.02
-73.47
-71.30
-65.59
-57.19
-47.37
-37.44
-28.31
-20.34
-13.45
-7.36
-1.89
2.99
7.21
10.81
14.17
18.03
23.34
31.02
41.54
54.69
69.48
84.36
97.65
108.01
114.88
118.43
119.51
119.30
118.93
119.22
120.28
121.48
121.49
118.73
111.87
100.37
84.59
65.67
45.03
23.93
3.32
-16.03
-33.20
-46.99
-56.01
-59.18
-56.27
-48.24
-37.11
-25.40
-15.35
-8.29
-4.30
-2.37
-0.95
1.48
6.07
13.29
23.01
34.43
46.08
56.03
62.21
63.12
58.40
49.05
37.06
24.68
13.54
4.24
-3.53
-10.55
-17.47
-24.64
-32.09
-39.84
-48.05
-56.94
-66.64
-76.94
-87.31
-97.11
-105.85
-113.35
-119.78
-125.44
-130.51
-134.89
-138.22
-140.09
-140.25
-138.87
-136.35
-133.26
-129.86
-126.01
-121.16
-114.67
-106.10
-95.54
-83.54
-70.92
-58.49
-46.75
-35.81
-25.48
-15.41
-5.36
4.73
14.62
23.87
31.96
38.42
43.03
45.82
47.14
47.60
47.93
48.94
51.35
55.55
61.32
67.84
73.86
78.30
80.78
81.80
82.46
83.85
86.50
90.16
94.04
97.16
98.69
97.98
94.43
87.47
76.73
62.39
45.40
27.34
10.02
-5.06
-17.05
-25.66
-30.87
-32.85
-31.81
-28.11
-22.37
-15.48
-8.45
-2.26
2.24
4.47
4.12
1.12
-4.12
-10.70
-17.14
-21.54
-22.03
-17.43
-7.62
6.25
22.15
37.96
52.08
63.87
73.43
81.04
86.66
89.75
89.59
85.78
78.69
69.39
59.23
49.23
39.66
30.09
19.73
8.08
-4.76
-17.98
-30.40
-40.88
-48.71
-53.79
-56.32
-56.69
-55.07
-51.54
-46.19
-39.41
-32.06
-25.31
-20.35
-17.94
-18.18
-20.46
-23.79
-27.14
-29.77
-31.43
-32.22
-32.37
-32.01
-31.07
-29.29
-26.41
-22.40
-17.55
-12.45
-7.73
-3.94
-1.29
0.27
1.03
1.36
1.71
2.45
3.83
5.90
8.41
10.84
12.47
12.70
11.22
8.08
3.59
-2.02
-8.74
-16.90
-26.90
-38.96
-52.81
-67.69
-82.44
-95.79
-106.65
-114.35
-118.74
-120.19
-119.38
-116.98
-113.31
-108.16
-100.77
-90.22
-75.84
-57.59
-36.27
-13.12
10.56
33.97
56.95
79.73
102.47
124.74
145.49
163.31
176.91
185.57
189.26
188.54
184.32
177.74
170.19
163.29
158.63
157.22
158.81
161.56
162.42
158.09
146.29
126.64
100.80
71.74
42.53
15.36
-8.78
-29.79
-47.70
-62.11
-72.09
-76.71
-75.65
-69.57
-60.04
-49.03
-38.21
-28.67
-20.82
-14.70
-10.27
-7.57
-6.60
-7.17
-8.81
-10.78
-12.26
-12.53
-11.15
-8.06
-3.53
1.98
7.90
13.71
19.02
23.58
27.25
29.90
31.41
31.68
30.65
28.31
24.76
20.16
14.73
8.64
1.98
-5.26
-13.16
-21.70
-30.66
-39.44
-47.07
-52.36
-54.21
-51.92
-45.50
-35.69
-23.81
-11.40
0.13
9.77
16.99
21.77
24.32
24.93
23.78
20.96
16.53
10.66
3.78
-3.52
-10.54
-16.74
-21.85
-25.89
-29.05
-31.60
-33.82
-36.00
-38.42
-41.21
-44.10
-46.39
-47.05
-45.09
-40.18
-32.83
-24.39
-16.61
-11.06
-8.77
-10.13
-14.93
-22.50
-31.76
-41.22
-49.04
-53.41
-52.97
-47.29
-37.03
-23.69
-9.26
4.39
15.91
24.67
30.60
33.99
35.19
34.37
31.63
27.06
20.89
13.66
6.21
-0.52
-5.65
-8.60
-9.18
-7.53
-4.02
0.84
6.56
12.67
18.62
23.87
27.78
29.81
29.66
27.37
23.39
18.43
13.26
8.47
4.38
0.97
-2.01
-5.01
-8.51
-12.90
-18.32
-24.45
-30.46
-35.14
-37.22
-35.75
-30.45
-21.80
-10.87
0.95
12.38
22.43
30.53
36.47
40.30
42.25
42.59
41.70
39.97
37.82
35.66
33.84
32.57
31.91
31.72
31.74
31.67
31.32
30.68
29.89
29.18
28.71
28.53
28.50
28.37
27.82
26.62
24.65
21.94
18.62
14.85
10.85
6.80
2.89
-0.76
-4.11
-7.29
-10.59
-14.38
-18.92
-24.12
-29.38
-33.59
-35.37
-33.60
-27.82
-18.44
-6.69
5.80
17.50
27.31
34.69
39.57
42.12
42.72
42.01
40.84
40.11
40.29
41.19
41.79
40.76
37.03
30.42
21.76
12.58
4.51
-1.15
-3.58
-2.31
2.95
12.15
24.64
38.88
52.47
62.77
67.52
65.64
57.48
44.65
29.42
14.12
0.48
-10.65
-19.25
-26.02
-31.84
-37.54
-43.51
-49.57
-55.03
-58.87
-60.17
-58.29
-53.13
-45.09
-34.96
-23.73
-12.39
-1.83
7.23
14.32
19.43
23.14
26.52
30.78
36.70
44.17
52.19
59.23
63.89
65.21
62.78
56.47
46.21
32.08
14.67
-4.65
-23.76
-40.40
-52.91
-60.81
-64.79
-66.30
-66.83
-67.48
-68.80
-70.92
-73.68
-76.68
-79.36
-80.99
-80.94
-78.81
-74.62
-68.71
-61.48
-53.29
-44.39
-34.97
-25.21
-15.10
-4.34
7.59
21.09
35.94
50.98
64.22
73.59
77.89
77.32
73.52
68.81
65.38
64.59
66.82
71.69
78.34
85.62
92.11
96.31
96.89
93.09
84.99
73.56
60.26
46.54
33.48
21.59
10.91
1.24
-7.53
-15.37
-22.09
-27.41
-31.25
-33.84
-35.76
-37.78
-40.62
-44.66
-49.74
-55.32
-60.69
-65.23
-68.63
-70.96
-72.51
-73.72
-75.01
-76.64
-78.39
-79.36
-77.81
-71.68
-59.26
-40.21
-16.10
9.81
33.51
51.58
62.28
65.77
63.64
57.99
50.52
42.28
33.72
25.12
16.90
9.70
4.30
1.32
1.09
3.43
7.69
12.91
18.18
22.83
26.62
29.50
31.31
31.56
29.51
24.70
17.49
9.38
2.52
-1.20
-1.04
2.26
6.87
10.89
12.99
12.58
9.33
2.66
-8.31
-24.11
-44.00
-65.61
-85.38
-99.87
-107.01
-106.66
-100.27
-89.91
-77.52
-64.51
-52.07
-41.42
-33.86
-30.35
-30.97
-34.65
-39.40
-43.01
-43.88
-41.59
-36.94
-31.54
-27.07
-24.60
-24.27
-25.30
-26.50
-26.75
-25.38
-22.26
-17.56
-11.56
-4.49
3.37
11.50
19.13
25.27
29.01
29.72
27.25
21.98
14.73
6.66
-0.92
-6.89
-10.65
-12.38
-13.08
-14.30
-17.43
-23.11
-30.82
-38.94
-45.36
-48.25
-46.68
-40.86
-31.78
-20.84
-9.23
2.17
12.84
22.47
30.92
38.26
44.82
50.98
56.94
62.47
67.07
70.17
71.54
71.43
70.27
68.28
65.27
60.70
54.18
45.89
36.82
28.39
21.86
17.68
15.37
13.71
11.41
7.58
2.08
-4.59
-11.59
-18.23
-24.19
-29.60
-34.83
-40.16
-45.54
-50.60
-54.83
-57.92
-59.96
-61.45
-62.95
-64.87
-67.05
-68.75
-68.88
-66.26
-59.96
-49.52
-34.96
-16.93
3.32
24.00
43.07
58.63
69.45
75.12
76.02
72.96
66.77
58.04
47.23
34.85
21.68
8.96
-1.77
-8.84
-10.90
-7.34
1.41
13.87
27.78
40.62
50.25
55.08
54.24
47.47
35.16
18.52
-0.37
-18.74
-33.79
-43.61
-47.80
-47.61
-45.27
-43.11
-42.59
-44.04
-46.88
-50.18
-53.25
-55.94
-58.41
-60.69
-62.32
-62.20
-59.01
-51.76
-40.30
-25.48
-8.79
8.15
23.98
37.65
48.41
55.66
59.08
58.81
55.49
50.13
43.72
36.93
30.11
23.45
17.30
12.35
9.51
9.59
13.01
19.65
28.71
38.82
48.17
54.78
57.09
54.50
47.59
37.99
27.70
18.30
10.49
4.04
-1.74
-7.55
-13.67
-19.99
-26.32
-32.47
-38.37
-43.98
-49.14
-53.57
-57.02
-59.34
-60.55
-60.64
-59.53
-56.91
-52.34
-45.44
-36.13
-24.82
-12.37
0.14
11.71
21.80
30.42
38.03
45.18
52.11
58.57
63.87
67.24
68.15
66.53
62.74
57.38
51.08
44.47
38.19
32.93
29.42
28.20
29.40
32.54
36.66
40.52
43.08
43.77
42.67
40.27
37.11
33.46
29.22
24.14
18.32
12.30
6.99
3.20
1.24
0.71
0.73
0.23
-1.64
-5.52
-11.75
-20.43
-31.26
-43.36
-55.22
-64.98
-70.89
-71.91
-67.98
-60.06
-49.71
-38.65
-28.29
-19.49
-12.47
-6.87
-1.98
2.90
8.16
13.75
19.24
23.99
27.48
29.40
29.69
28.48
26.08
22.89
19.47
16.42
14.21
13.02
12.60
12.33
11.49
9.55
6.32
2.03
-2.91
-8.05
-13.06
-17.77
-22.16
-26.34
-30.57
-35.27
-40.90
-47.76
-55.70
-63.98
-71.28
-76.03
-76.83
-72.97
-64.65
-52.99
-39.75
-26.87
-16.09
-8.55
-4.66
-4.04
-5.63
-8.06
-10.06
-10.86
-10.43
-9.36
-8.34
-7.63
-6.68
-4.32
0.57
8.43
18.63
29.77
40.32
49.11
55.44
58.79
58.46
53.69
44.15
30.64
15.35
1.37
-8.45
-12.63
-11.60
-7.30
-2.28
1.34
2.31
0.12
-5.29
-13.82
-25.16
-38.44
-52.19
-64.39
-73.17
-77.39
-77.04
-72.98
-66.27
-57.51
-46.57
-33.01
-16.71
1.52
19.93
36.29
48.55
55.44
56.58
52.44
44.08
32.98
20.90
9.69
0.93
-4.33
-5.76
-3.58
1.69
9.42
18.82
28.86
38.17
45.44
49.87
51.68
51.96
52.27
53.76
56.54
59.66
61.49
60.38
55.25
45.86
32.81
17.39
1.39
-13.16
-24.45
-31.21
-33.17
-31.00
-25.91
-19.03
-10.84
-1.06
10.82
24.94
40.38
55.18
66.79
72.90
72.10
64.19
49.86
30.19
6.20
-21.24
-50.92
-80.78
-107.81
-128.55
-140.07
-140.97
-131.82
-114.78
-92.76
-68.60
-44.68
-22.87
-4.90
7.87
14.74
16.25
14.32
11.82
11.58
15.27
22.84
32.56
41.81
47.92
48.99
44.25
34.09
19.97
4.09
-10.81
-22.00
-27.27
-25.64
-17.65
-5.29
8.37
20.05
27.18
28.74
25.54
20.07
15.49
14.46
18.09
25.53
34.27
41.13
43.39
39.72
30.68
18.46
6.20
-3.16
-7.84
-7.70
-4.17
0.39
3.65
4.20
1.98
-1.96
-6.05
-8.85
-9.54
-8.00
-4.82
-1.10
1.71
2.03
-1.36
-8.95
-20.32
-34.20
-48.81
-62.35
-73.37
-80.94
-84.74
-85.09
-82.84
-79.26
-75.71
-73.04
-71.22
-69.20
-65.46
-58.82
-49.17
-37.70
-26.32
-16.73
-9.68
-4.72
-0.67
3.60
8.73
14.88
21.91
29.76
38.27
46.90
54.48
59.35
60.03
55.89
47.64
37.13
26.66
18.14
12.62
10.19
10.25
11.91
14.32
16.63
17.89
17.09
13.38
6.49
-2.91
-13.23
-22.37
-28.40
-30.32
-28.35
-23.92
-19.03
-15.68
-15.15
-17.77
-22.87
-29.11
-34.84
-38.55
-39.20
-36.47
-30.74
-22.95
-14.16
-5.38
2.60
9.17
13.83
16.24
16.30
14.31
10.98
7.22
3.79
1.05
-1.05
-2.84
-4.52
-5.92
-6.51
-5.56
-2.49
2.89
10.24
18.78
27.43
35.12
40.95
44.48
45.79
45.37
43.96
42.25
40.64
39.15
37.63
35.77
33.28
29.85
25.08
18.64
10.47
1.20
-7.83
-14.80
-18.23
-17.69
-14.10
-9.43
-5.74
-4.21
-4.63
-5.64
-5.58
-3.48
0.52
5.35
9.70
12.75
14.44
15.29
15.86
16.37
16.61
16.28
15.39
14.49
14.47
16.11
19.63
24.39
29.22
32.82
34.41
33.97
32.24
30.37
29.40
29.85
31.53
33.65
35.08
34.82
32.38
28.14
23.33
19.56
18.15
19.50
22.78
26.28
27.95
26.10
19.83
9.13
-5.22
-21.84
-38.86
-54.09
-65.30
-70.87
-70.28
-64.40
-55.21
-45.14
-36.17
-29.26
-24.38
-20.85
-17.97
-15.34
-12.98
-11.03
-9.57
-8.44
-7.31
-5.86
-3.91
-1.50
1.07
3.35
4.79
4.96
3.71
1.56
-0.39
-0.64
1.99
7.85
16.20
25.57
34.42
41.57
46.41
48.54
47.48
42.65
33.72
21.16
6.48
-8.11
-20.47
-29.41
-35.07
-38.74
-41.99
-45.94
-50.79
-55.87
-59.98
-61.89
-60.76
-56.28
-48.81
-39.30
-29.21
-20.12
-13.18
-8.67
-5.79
-3.10
0.74
6.31
13.26
20.58
27.24
32.55
36.04
37.14
34.91
28.25
16.61
0.61
-17.73
-35.50
-49.88
-59.11
-62.88
-62.18
-58.65
-54.03
-49.68
-46.48
-44.84
-44.81
-46.17
-48.49
-51.28
-53.97
-55.96
-56.73
-55.83
-53.03
-48.44
-42.48
-35.69
-28.43
-20.70
-12.06
-2.14
8.96
20.33
30.57
38.56
44.19
48.57
53.42
60.01
68.33
77.00
84.03
88.00
88.84
87.93
87.32
88.75
92.91
99.27
106.41
112.40
115.30
113.45
105.72
91.75
72.25
48.94
24.30
1.15
-17.96
-31.33
-38.35
-39.59
-36.53
-31.19
-25.58
-21.24
-19.02
-18.97
-20.60
-23.16
-25.98
-28.71
-31.36
-34.22
-37.73
-42.15
-47.52
-53.46
-59.29
-64.01
-66.67
-66.45
-62.99
-56.41
-47.30
-36.58
-25.25
-14.29
-4.51
3.43
9.13
12.49
13.73
13.36
11.96
10.08
8.10
6.22
4.55
3.25
2.49
2.44
3.14
4.41
5.98
7.47
8.62
9.33
9.54
9.28
8.52
7.24
5.47
3.35
1.04
-1.31
-3.73
-6.33
-9.25
-12.52
-16.02
-19.50
-22.82
-26.03
-29.51
-33.80
-39.39
-46.43
-54.55
-62.77
-69.70
-73.86
-74.05
-69.60
-60.62
-47.87
-32.55
-15.89
1.17
18.21
35.06
51.54
67.01
80.14
89.22
92.63
89.53
80.34
66.65
50.79
35.11
21.36
10.40
2.36
-3.09
-6.44
-8.17
-8.84
-9.05
-9.50
-10.82
-13.47
-17.55
-22.73
-28.31
-33.36
-37.08
-38.97
-39.11
-38.03
-36.45
-34.95
-33.69
-32.40
-30.69
-28.26
-25.12
-21.60
-18.25
-15.60
-14.18
-14.42
-16.68
-21.04
-27.22
-34.37
-41.16
-46.05
-47.73
-45.51
-39.60
-31.05
-21.42
-12.37
-5.08
-0.00
3.13
5.05
6.40
7.54
8.46
9.07
9.44
10.00
11.39
14.17
18.59
24.48
31.36
38.62
45.67
52.04
57.45
61.80
65.20
67.86
69.93
71.30
71.66
70.60
68.11
64.74
61.52
59.46
58.99
59.53
59.78
58.19
53.66
45.98
35.79
24.21
12.69
2.83
-3.57
-4.62
1.26
14.61
34.36
57.61
80.09
97.34
105.81
103.88
92.05
72.59
48.68
23.56
-0.05
-20.21
-35.63
-45.62
-50.07
-49.56
-45.45
-39.60
-33.82
-29.38
-26.51
-24.55
-22.46
-19.33
-14.84
-9.19
-2.89
3.61
9.96
15.76
20.39
22.92
22.46
18.52
11.40
2.11
-7.84
-17.06
-24.60
-30.19
-34.05
-36.62
-38.33
-39.46
-40.14
-40.42
-40.20
-39.10
-36.40
-31.26
-23.09
-12.05
0.88
14.19
26.49
36.80
44.64
49.53
50.69
47.11
38.26
24.76
8.66
-7.14
-19.96
-28.27
-32.05
-32.26
-30.09
-26.47
-22.01
-17.46
-13.88
-12.52
-14.34
-19.50
-27.24
-36.16
-44.71
-51.69
-56.39
-58.56
-58.23
-55.52
-50.54
-43.47
-34.64
-24.71
-14.77
-6.32
-1.01
-0.09
-3.89
-11.64
-21.56
-31.60
-40.10
-46.16
-49.68
-50.89
-49.99
-46.90
-41.30
-32.95
-22.01
-9.20
4.26
16.89
27.24
34.23
37.38
37.11
34.76
32.25
31.38
33.01
36.66
40.62
42.87
42.05
38.29
33.21
29.25
28.58
32.23
39.72
49.40
59.09
66.67
70.37
68.92
61.78
49.50
33.96
18.28
5.94
-0.39
0.12
6.12
14.56
21.74
24.33
20.03
7.88
-11.70
-36.81
-64.05
-88.91
-106.61
-113.48
-108.08
-91.80
-68.34
-42.65
-19.42
-2.03
8.05
11.23
9.22
4.47
-0.62
-4.23
-5.45
-4.38
-1.94
0.54
1.73
0.74
-2.61
-7.78
-13.66
-18.92
-22.49
-23.90
-23.35
-21.47
-19.06
-16.65
-14.54
-12.76
-11.19
-9.55
-7.40
-4.37
-0.40
3.87
7.10
7.60
4.03
-3.92
-15.37
-28.53
-41.50
-52.87
-61.93
-68.45
-72.27
-73.07
-70.48
-64.39
-55.24
-44.02
-31.86
-19.74
-8.12
2.91
13.45
23.56
33.06
41.73
49.48
56.38
62.61
68.24
73.08
76.75
78.89
79.27
78.00
75.36
71.70
67.29
62.29
56.82
51.08
45.42
40.31
36.21
33.36
31.60
30.46
29.34
27.79
25.67
23.10
20.11
16.43
11.42
4.35
-5.08
-16.45
-28.52
-39.64
-48.28
-53.46
-54.89
-52.80
-47.73
-40.41
-31.69
-22.61
-14.26
-7.67
-3.41
-1.53
-1.46
-2.28
-3.09
-3.40
-3.38
-3.75
-5.48
-9.19
-14.81
-21.43
-27.55
-31.60
-32.56
-30.34
-25.83
-20.44
-15.57
-11.96
-9.56
-7.61
-5.12
-1.41
3.58
9.21
14.35
17.67
18.11
15.15
9.12
1.29
-6.43
-11.97
-13.92
-12.08
-7.66
-2.84
0.12
-0.23
-3.96
-9.82
-15.84
-20.07
-21.19
-18.75
-12.98
-4.48
6.10
18.04
30.48
42.36
52.49
59.91
64.17
65.53
64.84
63.22
61.53
60.27
59.41
58.68
57.71
56.21
54.00
50.97
47.16
42.81
38.39
34.51
31.73
30.29
30.04
30.51
31.09
31.35
31.05
30.18
28.79
26.91
24.56
21.78
18.70
15.40
11.74
7.24
1.16
-7.11
-17.69
-29.96
-42.64
-54.12
-63.02
-68.49
-70.33
-68.89
-64.77
-58.62
-51.00
-42.37
-33.08
-23.40
-13.47
-3.47
6.40
15.75
24.07
30.77
35.50
38.34
39.91
41.37
43.98
48.60
55.15
62.48
68.70
71.95
71.26
66.97
60.70
54.58
50.36
48.75
49.27
50.67
51.57
51.05
48.82
45.17
40.66
35.85
31.20
26.86
22.64
17.93
11.74
3.03
-8.80
-23.44
-39.41
-54.43
-66.09
-72.82
-74.31
-71.48
-65.91
-59.16
-52.35
-46.04
-40.49
-35.93
-32.55
-30.35
-28.95
-27.64
-25.60
-22.27
-17.51
-11.69
-5.37
0.95
7.09
13.28
20.13
28.48
38.98
51.81
66.34
81.04
93.75
102.23
104.73
100.41
89.64
73.75
54.73
34.81
16.04
-0.05
-12.62
-21.62
-27.65
-31.77
-35.30
-39.61
-46.00
-55.59
-69.07
-86.25
-105.73
-124.83
-140.07
-148.17
-147.18
-137.32
-120.97
-101.85
-83.56
-68.40
-56.76
-47.48
-38.84
-29.64
-19.60
-9.38
0.15
8.35
15.04
20.26
24.02
26.12
26.40
25.04
22.84
21.06
20.91
23.05
27.21
32.25
36.58
38.73
37.83
33.80
27.28
19.43
11.49
4.56
-0.61
-3.75
-4.99
-4.79
-3.85
-2.92
-2.59
-3.12
-4.26
-5.40
-5.87
-5.22
-3.43
-0.89
1.89
4.50
6.72
8.51
9.79
10.51
10.71
10.74
11.27
13.15
17.01
22.93
30.26
37.78
44.06
47.92
48.76
46.94
43.75
40.99
40.35
42.70
47.53
53.14
57.16
57.47
52.89
43.47
30.24
14.78
-1.21
-16.17
-28.75
-37.90
-43.05
-44.32
-42.57
-39.26
-36.05
-34.29
-34.72
-37.34
-41.56
-46.55
-51.53
-56.02
-59.75
-62.57
-64.30
-64.56
-62.93
-59.02
-52.83
-44.81
-35.86
-27.01
-19.18
-12.84
-8.01
-4.44
-1.84
-0.12
0.64
0.34
-0.96
-2.84
-4.67
-5.81
-5.88
-4.92
-3.26
-1.38
0.38
1.84
3.00
3.89
4.48
4.72
4.58
4.18
3.76
3.65
4.11
5.33
7.39
10.30
13.92
17.75
20.91
22.22
20.70
16.07
9.01
0.90
-6.74
-12.84
-17.05
-19.47
-20.30
-19.60
-17.46
-14.38
-11.47
-10.07
-11.14
-14.59
-19.21
-23.34
-25.78
-26.35
-25.78
-25.03
-24.52
-23.97
-22.73
-20.30
-16.80
-12.83
-9.18
-6.45
-4.96
-4.78
-5.83
-7.85
-10.23
-12.06
-12.33
-10.43
-6.48
-1.50
3.01
5.58
5.27
1.91
-4.01
-11.42
-18.84
-24.57
-27.03
-25.28
-19.46
-11.01
-2.40
3.62
4.94
1.05
-6.74
-15.57
-22.09
-23.59
-18.94
-8.91
4.12
16.96
26.53
30.68
28.60
20.90
9.29
-3.95
-16.50
-26.39
-32.41
-34.20
-32.22
-27.59
-21.73
-16.00
-11.50
-8.83
-8.17
-9.25
-11.47
-13.97
-15.70
-15.55
-12.67
-6.83
1.35
10.38
18.30
23.31
24.45
21.94
17.15
12.07
8.44
7.18
7.97
9.55
10.37
9.36
6.26
1.69
-3.37
-8.06
-11.94
-14.94
-17.06
-18.11
-17.69
-15.47
-11.55
-6.65
-1.97
1.26
2.19
0.66
-2.77
-7.10
-11.25
-14.37
-16.06
-16.36
-15.57
-14.06
-12.08
-9.76
-7.16
-4.39
-1.61
1.06
3.63
6.37
9.64
13.64
18.18
22.67
26.18
27.87
27.21
24.13
18.95
12.21
4.51
-3.46
-10.85
-16.64
-19.80
-19.50
-15.52
-8.36
0.68
9.95
17.87
23.54
26.96
28.97
30.80
33.38
36.94
40.84
43.98
45.21
44.01
40.67
36.27
32.45
30.83
32.60
38.09
46.62
56.62
65.96
72.45
74.36
70.90
62.48
50.90
38.98
29.84
25.93
28.13
35.29
44.46
51.88
54.18
49.46
37.74
20.72
1.09
-18.27
-34.95
-47.40
-54.93
-57.65
-56.25
-51.81
-45.67
-39.31
-34.12
-31.11
-30.58
-32.02
-34.21
-35.66
-35.15
-32.16
-27.09
-21.00
-15.22
-10.85
-8.49
-8.09
-9.16
-10.91
-12.56
-13.49
-13.31
-11.81
-8.98
-4.98
-0.14
5.09
10.11
14.36
17.42
19.10
19.42
18.50
16.53
13.65
10.02
5.89
1.60
-2.47
-5.97
-8.76
-11.01
-13.20
-16.13
-20.62
-27.22
-35.90
-45.80
-55.32
-62.52
-65.75
-64.14
-57.93
-48.20
-36.50
-24.27
-12.54
-1.91
7.35
15.20
21.69
26.97
31.22
34.56
36.88
37.94
37.66
36.42
35.28
35.70
38.97
45.50
54.54
64.40
73.18
79.34
82.06
81.04
76.21
67.53
55.19
39.86
22.96
6.42
-7.93
-18.99
-26.73
-32.00
-36.01
-39.69
-43.42
-47.08
-50.28
-52.84
-54.86
-56.72
-58.89
-61.59
-64.61
-67.25
-68.54
-67.60
-63.96
-57.74
-49.67
-40.67
-31.56
-22.78
-14.35
-6.11
2.00
9.76
16.65
22.07
25.58
27.07
26.88
25.81
24.95
25.43
28.18
33.60
41.42
50.72
60.18
68.36
73.97
76.13
74.54
69.68
62.73
55.32
49.04
44.92
43.12
42.97
43.34
43.03
41.06
36.68
29.42
19.14
6.27
-8.03
-21.99
-33.74
-41.94
-46.31
-47.65
-47.47
-47.36
-48.56
-51.58
-56.12
-61.17
-65.19
-66.50
-63.83
-56.83
-46.32
-34.08
-22.18
-12.09
-4.02
3.07
10.80
20.51
32.38
45.32
57.35
66.28
70.35
68.48
60.31
46.12
26.98
4.91
-17.14
-35.79
-48.28
-53.41
-52.02
-46.58
-40.10
-34.93
-31.94
-30.61
-29.70
-28.04
-25.08
-20.83
-15.53
-9.28
-2.03
6.12
14.55
22.09
27.33
29.26
27.82
24.07
19.89
17.29
17.66
21.25
27.05
33.21
37.69
38.95
36.51
31.00
23.84
16.77
11.36
8.69
9.20
12.59
17.79
22.90
25.53
23.45
15.43
2.07
-14.21
-29.83
-41.47
-47.37
-47.93
-45.31
-42.18
-40.30
-39.80
-39.33
-37.08
-32.00
-24.49
-16.19
-9.11
-4.49
-2.12
-0.60
1.88
6.52
13.20
20.61
26.72
29.74
28.66
23.41
14.67
3.37
-9.59
-23.43
-37.40
-50.67
-62.32
-71.55
-77.98
-81.74
-83.55
-84.28
-84.57
-84.44
-83.23
-79.92
-73.70
-64.41
-52.70
-39.76
-26.90
-15.12
-4.99
3.36
9.99
15.04
18.63
20.97
22.29
22.87
22.89
22.45
21.56
20.38
19.27
18.73
19.17
20.67
22.88
25.07
26.40
26.33
24.79
22.33
19.86
18.31
18.25
19.66
21.95
24.18
25.39
24.95
22.77
19.24
15.15
11.41
8.85
8.00
8.89
10.97
13.17
14.22
13.06
9.37
3.81
-1.95
-5.67
-5.30
0.30
10.92
24.95
39.84
52.81
61.58
64.91
62.71
55.88
45.91
34.47
23.10
13.02
5.12
-0.09
-2.47
-2.35
-0.46
2.09
4.15
4.68
3.19
-0.14
-4.55
-9.06
-12.89
-15.80
-18.09
-20.32
-22.83
-25.48
-27.61
-28.41
-27.32
-24.29
-19.69
-14.11
-8.04
-1.88
3.93
8.71
11.47
11.24
7.42
0.12
-9.83
-21.06
-32.10
-41.65
-48.79
-52.96
-53.94
-51.77
-46.80
-39.67
-31.24
-22.39
-13.76
-5.61
2.17
9.91
17.77
25.57
32.74
38.46
42.10
43.39
42.62
40.55
38.23
36.87
37.63
41.28
47.89
56.62
65.84
73.54
77.97
78.03
73.32
63.89
50.00
32.07
10.99
-11.69
-33.82
-53.19
-68.25
-78.56
-84.76
-87.95
-89.10
-88.78
-87.28
-84.97
-82.47
-80.43
-79.08
-77.85
-75.36
-69.75
-59.34
-43.21
-21.61
3.95
30.94
56.37
77.49
92.49
100.94
103.92
103.56
102.31
102.12
103.90
107.46
111.70
115.00
115.67
112.29
104.16
91.57
75.94
59.51
44.76
33.62
26.75
23.36
21.50
18.78
13.08
2.99
-11.98
-31.55
-54.59
-79.12
-102.47
-121.76
-134.75
-140.71
-140.85
-137.87
-134.93
-134.25
-136.31
-139.79
-142.36
-141.83
-136.95
-127.72
-115.14
-100.57
-85.43
-70.79
-57.50
-46.11
-36.96
-30.07
-25.16
-21.67
-18.88
-16.17
-13.09
-9.46
-5.35
-0.98
3.35
7.42
11.09
14.40
17.41
20.23
22.80
24.91
26.31
27.00
27.35
28.22
30.60
35.09
41.56
49.00
55.85
60.62
62.33
60.78
56.39
49.86
41.82
32.76
23.05
13.23
4.17
-3.04
-7.27
-7.83
-4.67
1.47
9.28
17.27
24.16
29.19
32.20
33.55
33.98
34.42
35.77
38.62
43.04
48.41
53.51
56.73
56.52
51.77
41.92
27.20
8.58
-12.21
-32.84
-50.76
-63.87
-71.11
-72.81
-70.40
-65.75
-60.39
-55.06
-49.77
-44.27
-38.53
-33.06
-28.84
-26.93
-28.07
-32.37
-39.25
-47.54
-55.75
-62.41
-66.35
-66.96
-64.28
-58.83
-51.48
-43.08
-34.33
-25.74
-17.53
-9.74
-2.20
5.27
12.80
20.24
27.22
33.24
37.88
40.97
42.64
43.26
43.22
42.86
42.43
42.19
42.38
43.11
44.16
44.93
44.66
43.03
40.69
39.28
40.81
46.56
56.26
68.05
79.19
87.25
90.83
89.70
84.20
74.74
61.69
45.90
29.07
13.84
2.94
-1.75
-0.00
6.73
15.94
24.96
31.63
34.51
32.90
26.78
16.83
4.38
-8.66
-20.22
-28.58
-32.81
-33.02
-30.19
-25.78
-21.26
-17.64
-15.38
-14.29
-13.93
-13.87
-13.86
-13.84
-13.83
-13.70
-13.18
-11.95
-9.84
-7.06
-4.18
-1.92
-0.89
-1.33
-3.03
-5.45
-7.96
-10.16
-11.94
-13.51
-15.21
-17.37
-20.28
-24.22
-29.53
-36.56
-45.51
-56.20
-67.82
-78.80
-86.93
-89.76
-85.23
-72.47
-52.29
-27.25
-0.99
22.72
40.96
52.25
56.59
54.95
48.88
40.03
30.10
20.76
13.48
9.26
8.32
10.05
13.27
16.67
19.34
20.96
21.68
21.91
22.00
22.07
22.01
21.67
20.97
20.02
19.03
18.21
17.59
17.02
16.12
14.51
11.93
8.33
3.96
-0.80
-5.53
-9.98
-14.15
-18.36
-23.09
-28.79
-35.62
-43.17
-50.51
-56.29
-59.19
-58.32
-53.57
-45.65
-35.79
-25.41
-15.57
-6.87
0.57
6.87
12.11
16.22
19.00
20.30
20.15
18.83
16.86
14.93
13.68
13.67
15.15
17.94
21.54
25.24
28.40
30.61
31.82
32.15
31.95
31.68
31.89
33.19
35.97
40.13
45.01
49.56
52.65
53.50
51.88
47.89
41.76
33.56
23.25
10.99
-2.68
-16.77
-30.15
-41.87
-51.39
-58.53
-63.21
-65.31
-64.59
-60.92
-54.46
-45.73
-35.59
-25.07
-15.12
-6.44
0.59
5.93
9.74
12.34
13.99
14.94
15.35
15.33
15.04
14.69
14.56
14.92
15.98
17.80
20.25
23.10
25.99
28.55
30.45
31.46
31.53
30.74
29.29
27.47
25.49
23.47
21.39
19.05
16.25
12.87
8.93
4.66
0.40
-3.47
-6.69
-9.23
-11.35
-13.56
-16.48
-20.60
-26.03
-32.23
-38.13
-42.31
-43.49
-40.94
-34.76
-25.82
-15.43
-4.93
4.67
12.80
19.28
24.16
27.62
29.82
30.91
30.96
29.94
27.85
24.81
21.24
17.83
15.39
14.57
15.58
18.09
21.39
24.67
27.33
29.14
30.13
30.44
30.12
29.14
27.46
25.17
22.55
19.96
17.58
15.32
12.77
9.38
4.72
-1.28
-8.18
-15.23
-21.64
-26.87
-30.81
-33.80
-36.41
-39.28
-42.84
-47.20
-52.01
-56.58
-59.93
-61.06
-59.22
-54.11
-46.01
-35.69
-24.16
-12.50
-1.55
8.08
16.09
22.40
27.08
30.33
32.44
33.66
34.18
34.00
33.08
31.41
29.23
27.01
25.37
24.88
25.81
28.05
31.20
34.64
37.77
40.09
41.19
40.88
39.10
36.00
31.91
27.28
22.53
18.00
13.81
9.93
6.19
2.45
-1.42
-5.41
-9.40
-13.22
-16.67
-19.73
-22.50
-25.25
-28.34
-32.05
-36.50
-41.51
-46.71
-51.54
-55.33
-57.42
-57.26
-54.54
-49.28
-41.86
-32.93
-23.35
-13.88
-5.14
2.54
9.05
14.43
18.73
22.05
24.45
26.00
26.80
26.87
26.24
24.92
22.92
20.35
17.40
14.33
11.46
9.10
7.49
6.69
6.64
7.06
7.61
7.95
7.83
7.12
5.85
4.10
1.97
-0.51
-3.37
-6.68
-10.56
-15.09
-20.34
-26.20
-32.45
-38.58
-43.92
-47.65
-48.97
-47.30
-42.45
-34.74
-24.99
-14.37
-4.16
4.62
11.31
15.86
18.55
19.92
20.45
20.49
20.17
19.50
18.54
17.42
16.32
15.47
14.93
14.68
14.58
14.44
14.17
13.74
13.23
12.73
12.30
11.88
11.29
10.31
8.73
6.50
3.79
0.90
-1.79
-4.09
-5.98
-7.70
-9.55
-11.87
-14.86
-18.65
-23.21
-28.36
-33.69
-38.47
-41.83
-42.88
-41.10
-36.46
-29.47
-20.98
-11.90
-2.98
5.23
12.39
18.25
22.64
25.46
26.71
26.53
25.19
23.01
20.43
17.89
15.79
14.38
13.75
13.78
14.28
15.06
15.98
17.01
18.07
19.09
19.88
20.25
20.02
19.08
17.46
15.25
12.67
9.93
7.24
4.73
2.39
0.05
-2.57
-5.78
-9.89
-14.99
-20.97
-27.31
-33.18
-37.52
-39.31
-37.92
-33.26
-25.91
-16.84
-7.16
2.23
10.66
17.77
23.36
27.30
29.54
30.16
29.36
27.47
24.93
22.19
19.72
17.91
17.04
17.18
18.17
19.69
21.36
22.90
24.17
25.15
25.80
26.01
25.53
24.08
21.50
17.83
13.39
8.62
3.99
-0.19
-3.83
-7.02
-9.92
-12.69
-15.47
-18.41
-21.70
-25.51
-29.82
-34.33
-38.33
-40.89
-41.12
-38.51
-33.10
-25.49
-16.68
-7.73
0.47
7.32
12.53
16.06
18.03
18.65
18.14
16.74
14.70
12.26
9.68
7.19
4.94
3.03
1.42
0.08
-1.00
-1.76
-2.05
-1.74
-0.81
0.58
2.09
3.33
3.92
3.66
2.58
0.91
-0.99
-2.78
-4.31
-5.65
-7.10
-9.00
-11.56
-14.71
-18.01
-20.72
-21.94
-20.80
-16.75
-9.82
-0.73
9.20
18.30
25.12
28.79
29.29
27.28
23.73
19.53
15.26
11.23
7.64
4.72
2.71
1.71
1.61
2.05
2.64
3.08
3.41
3.83
4.59
5.76
7.16
8.34
8.80
8.13
6.24
3.28
-0.43
-4.57
-8.99
-13.69
-18.77
-24.29
-30.23
-36.37
-42.33
-47.49
-51.09
-52.29
-50.37
-45.06
-36.65
-26.06
-14.61
-3.65
5.80
13.20
18.49
21.83
23.47
23.71
22.83
21.22
19.28
17.39
15.74
14.36
13.15
12.04
11.09
10.43
10.21
10.50
11.14
11.83
12.23
12.03
11.08
9.42
7.21
4.68
2.09
-0.42
-2.81
-5.16
-7.70
-10.67
-14.29
-18.57
-23.25
-27.74
-31.16
-32.62
-31.49
-27.61
-21.37
-13.62
-5.31
2.72
9.95
16.11
21.06
24.73
26.97
27.74
27.18
25.66
23.66
21.67
20.05
18.94
18.30
17.96
17.72
17.38
16.83
16.06
15.11
14.09
13.08
12.09
11.01
9.69
8.01
5.94
3.62
1.25
-0.98
-2.97
-4.78
-6.57
-8.59
-11.05
-14.07
-17.65
-21.60
-25.54
-28.84
-30.78
-30.67
-28.16
-23.34
-16.77
-9.30
-1.87
4.83
10.41
14.78
18.02
20.23
21.50
21.87
21.43
20.31
18.72
16.91
15.11
13.49
12.18
11.18
10.48
10.04
9.83
9.85
10.03
10.25
10.32
10.03
9.26
8.05
6.56
5.00
3.49
1.96
0.30
-1.62
-3.79
-6.12
-8.39
-10.55
-12.69
-15.11
-18.12
-21.85
-26.15
-30.51
-34.15
-36.26
-36.22
-33.76
-29.06
-22.63
-15.23
-7.61
-0.47
5.69
10.54
13.92
15.85
16.48
16.09
15.01
13.60
12.12
10.72
9.44
8.26
7.13
6.05
5.07
4.26
3.72
3.41
3.18
2.79
1.98
0.60
-1.35
-3.70
-6.24
-8.73
-11.06
-13.16
-15.02
-16.80
-18.70
-21.09
-24.29
-28.34
-32.84
-36.90
-39.27
-38.87
-35.11
-28.23
-19.21
-9.42
-0.15
7.71
13.85
18.32
21.34
23.11
23.72
23.27
21.92
19.95
17.72
15.53
13.61
12.03
10.80
9.94
9.43
9.28
9.43
9.78
10.21
10.58
10.77
10.64
10.10
9.03
7.37
5.08
2.27
-0.90
-4.21
-7.44
-10.39
-13.00
-15.29
-17.44
-19.74
-22.50
-25.91
-29.89
-33.99
-37.44
-39.32
-38.90
-35.82
-30.25
-22.79
-14.29
-5.62
2.49
9.48
15.02
18.98
21.38
22.42
22.35
21.46
20.04
18.38
16.78
15.47
14.66
14.38
14.49
14.79
15.09
15.33
15.59
16.00
16.61
17.33
17.88
17.96
17.34
15.99
14.04
11.75
9.40
7.20
5.24
3.47
1.68
-0.37
-2.89
-5.94
-9.42
-13.01
-16.36
-19.20
-21.49
-23.41
-25.32
-27.61
-30.52
-34.05
-37.91
-41.54
-44.27
-45.41
-44.38
-40.90
-35.05
-27.36
-18.62
-9.77
-1.67
5.16
10.46
14.27
16.72
18.03
18.43
18.20
17.67
17.14
16.81
16.69
16.67
16.59
16.38
16.13
16.01
16.19
16.67
17.33
17.95
18.35
18.46
18.30
17.95
17.42
16.69
15.66
14.28
12.56
10.57
8.46
6.35
4.32
2.37
0.43
-1.59
-3.77
-6.19
-8.87
-11.73
-14.62
-17.35
-19.78
-21.93
-23.99
-26.25
-29.01
-32.36
-36.16
-39.93
-43.04
-44.81
-44.70
-42.40
-37.93
-31.55
-23.79
-15.30
-6.78
1.16
8.08
13.76
18.20
21.47
23.66
24.83
24.99
24.22
22.71
20.77
18.79
17.10
15.94
15.33
15.23
15.53
16.10
16.88
17.76
18.65
19.37
19.76
19.72
19.24
18.47
17.59
16.72
15.93
15.14
14.26
13.23
12.07
10.82
9.54
8.17
6.59
4.66
2.29
-0.52
-3.63
-6.88
-10.07
-13.03
-15.59
-17.63
-18.97
-19.41
-18.73
-16.67
-12.96
-7.43
-0.06
8.90
18.90
29.02
38.15
45.20
49.40
50.49
48.74
44.84
39.65
33.94
28.33
23.24
18.93
15.51
12.92
10.95
9.28
7.65
5.90
4.09
2.42
1.09
0.21
-0.27
-0.54
-0.87
-1.50
-2.57
-4.10
-5.99
-8.09
-10.21
-12.28
-14.27
-16.22
-18.16
-20.11
-22.07
-24.07
-26.17
-28.50
-31.10
-33.96
-37.01
-40.20
-43.47
-46.74
-49.78
-52.18
-53.33
-52.61
-49.59
-44.25
-36.96
-28.43
-19.49
-10.87
-3.12
3.42
8.62
12.47
15.09
16.64
17.36
17.46
17.13
16.54
15.83
15.14
14.63
14.40
14.53
15.04
15.80
16.69
17.55
18.29
18.86
19.27
19.47
19.38
18.88
17.89
16.40
14.48
12.21
9.68
6.96
4.12
1.23
-1.58
-4.27
-6.83
-9.38
-12.03
-14.84
-17.75
-20.60
-23.31
-25.91
-28.68
-31.93
-35.87
-40.35
-44.84
-48.47
-50.38
-49.92
-46.92
-41.61
-34.61
-26.68
-18.55
-10.92
-4.31
0.91
4.56
6.69
7.50
7.28
6.27
4.60
2.34
-0.43
-3.54
-6.69
-9.61
-12.10
-14.09
-15.64
-16.90
-18.07
-19.37
-21.09
-23.50
-26.75
-30.76
-35.16
-39.31
-42.44
-43.89
-43.18
-40.24
-35.35
-29.01
-21.93
-14.79
-8.16
-2.41
2.36
6.19
9.29
11.92
14.34
16.73
19.20
21.66
23.95
25.76
26.85
27.13
26.77
26.29
26.31
27.39
29.86
33.65
38.41
43.65
48.94
53.88
58.09
61.00
61.84
59.80
54.32
45.51
34.28
22.24
11.23
2.79
-2.29
-4.09
-3.35
-0.98
2.28
6.03
10.17
14.59
19.01
23.05
26.33
28.74
30.41
31.71
32.86
33.96
34.80
35.15
34.82
33.80
32.25
30.42
28.66
27.14
25.73
23.80
20.35
14.44
5.75
-5.01
-16.21
-26.01
-33.18
-37.64
-40.39
-42.72
-45.37
-48.02
-49.48
-48.40
-44.04
-36.62
-27.10
-16.72
-6.45
3.29
12.50
21.40
30.07
38.25
45.31
50.39
52.67
51.69
47.46
40.51
31.74
22.09
12.39
3.26
-4.87
-11.63
-16.71
-19.91
-21.18
-20.73
-18.98
-16.48
-13.75
-11.23
-9.25
-8.03
-7.74
-8.43
-9.99
-12.13
-14.40
-16.29
-17.35
-17.43
-16.70
-15.73
-15.45
-16.89
-20.89
-27.65
-36.37
-45.31
-52.18
-54.85
-52.21
-44.53
-33.36
-20.83
-8.82
1.70
10.65
18.39
25.12
30.53
33.87
34.45
32.03
27.00
20.24
12.70
5.15
-1.93
-8.22
-13.41
-17.06
-18.71
-17.97
-14.69
-9.04
-1.58
6.90
15.38
22.87
28.55
31.93
32.82
31.38
27.89
22.70
16.18
8.71
0.67
-7.59
-15.86
-23.95
-31.67
-38.71
-44.58
-48.63
-50.27
-49.06
-44.90
-38.05
-29.17
-19.12
-8.99
0.21
7.62
12.71
15.38
16.00
15.31
14.15
13.31
13.31
14.27
16.02
18.18
20.27
21.88
22.71
22.58
21.45
19.40
16.56
13.13
9.29
5.26
1.40
-1.69
-3.12
-1.88
2.78
10.94
21.62
32.84
42.05
46.82
45.55
37.86
24.55
7.27
-11.97
-31.12
-48.29
-61.83
-70.51
-73.74
-71.86
-66.13
-58.51
-51.07
-45.35
-41.89
-40.28
-39.49
-38.34
-36.07
-32.44
-27.71
-22.39
-16.97
-11.81
-7.14
-3.14
-0.01
2.06
3.03
3.06
2.59
2.09
1.92
2.10
2.32
2.08
0.97
-1.20
-4.31
-8.19
-12.69
-17.85
-23.80
-30.58
-38.00
-45.61
-52.86
-59.33
-65.02
-70.26
-75.60
-81.35
-87.37
-93.01
-97.27
-99.24
-98.34
-94.45
-87.71
-78.31
-66.35
-51.94
-35.52
-18.04
-0.88
14.51
27.12
36.77
43.92
49.34
53.52
56.46
57.78
57.12
54.60
50.84
46.81
43.37
40.87
39.12
37.59
35.79
33.52
30.87
28.04
25.20
22.47
20.01
18.07
16.93
16.69
17.11
17.58
17.27
15.59
12.35
7.96
3.15
-1.29
-4.88
-7.52
-9.38
-10.71
-11.67
-12.27
-12.34
-11.55
-9.56
-5.96
-0.54
6.62
14.99
23.61
31.28
36.89
39.84
40.23
38.90
37.09
36.04
36.46
38.38
41.22
44.18
46.58
48.17
49.05
49.45
49.49
49.06
47.91
45.67
42.01
36.80
30.19
22.81
15.64
9.71
5.64
3.17
1.15
-2.09
-8.15
-17.82
-30.83
-45.81
-60.77
-73.60
-82.65
-87.13
-87.32
-84.47
-80.55
-77.67
-77.58
-81.17
-88.26
-97.56
-106.90
-113.69
-115.49
-110.75
-99.30
-82.53
-62.90
-43.19
-25.70
-11.76
-1.71
4.70
7.98
8.66
7.27
4.41
0.75
-3.08
-6.63
-9.68
-12.21
-14.25
-15.78
-16.63
-16.60
-15.56
-13.57
-10.88
-7.95
-5.24
-3.17
-1.96
-1.59
-1.76
-2.03
-1.96
-1.28
-0.04
1.34
2.27
2.09
0.43
-2.78
-7.26
-12.47
-17.87
-22.96
-27.45
-31.30
-34.66
-37.72
-40.55
-42.91
-44.23
-43.73
-40.70
-34.84
-26.40
-16.07
-4.79
6.51
17.10
26.46
34.25
40.21
44.20
46.19
46.38
45.16
43.07
40.69
38.54
36.89
35.85
35.26
34.94
34.65
34.24
33.67
32.94
32.10
31.17
30.17
29.02
27.64
25.90
23.72
21.14
18.36
15.70
13.43
11.68
10.30
8.95
7.25
5.06
2.51
-0.04
-2.16
-3.63
-4.54
-5.34
-6.63
-9.03
-12.90
-18.17
-24.21
-29.94
-34.00
-35.15
-32.59
-26.23
-16.67
-5.03
7.42
19.57
30.64
40.23
48.21
54.66
59.67
63.31
65.57
66.48
66.04
64.38
61.72
58.38
54.72
51.06
47.72
44.92
42.89
41.75
41.56
42.17
43.17
44.00
44.09
43.01
40.64
37.21
33.21
29.13
25.32
21.87
18.58
15.17
11.33
6.95
2.05
-3.13
-8.30
-13.19
-17.57
-21.45
-25.02
-28.67
-32.87
-37.92
-43.74
-49.80
-55.06
-58.29
-58.38
-54.72
-47.36
-37.02
-24.82
-11.98
0.47
11.80
21.53
29.40
35.30
39.22
41.25
41.65
40.75
38.98
36.85
35.00
34.11
34.92
37.97
43.51
51.32
60.88
71.47
82.44
93.28
103.59
112.98
120.94
126.91
130.41
131.24
129.52
125.65
120.13
113.38
105.73
97.35
88.36
78.87
68.97
58.74
48.25
37.50
26.50
15.23
3.65
-8.18
-20.04
-31.35
-41.21
-48.49
-52.11
-51.46
-46.59
-38.26
-27.71
-16.32
-5.32
4.38
12.21
17.85
21.21
22.36
21.56
19.22
15.87
12.02
8.08
4.26
0.63
-2.83
-6.11
-9.07
-11.55
-13.42
-14.67
-15.40
-15.85
-16.18
-16.39
-16.37
-15.96
-15.16
-14.23
-13.59
-13.67
-14.71
-16.63
-19.17
-22.04
-25.13
-28.55
-32.58
-37.44
-43.25
-49.92
-57.26
-65.00
-72.77
-80.01
-85.89
-89.28
-88.97
-84.05
-74.24
-60.13
-43.09
-24.95
-7.45
8.06
20.81
30.61
37.56
41.85
43.67
43.21
40.73
36.63
31.47
25.84
20.29
15.28
11.16
8.22
6.56
6.12
6.62
7.62
8.60
9.19
9.25
8.88
8.36
7.91
7.59
7.14
6.14
4.10
0.72
-4.07
-9.97
-16.49
-23.16
-29.62
-35.86
-42.09
-48.59
-55.46
-62.37
-68.49
-72.64
-73.60
-70.49
-63.06
-51.78
-37.67
-22.07
-6.32
8.44
21.41
32.07
40.19
45.69
48.71
49.58
48.78
46.96
44.76
42.77
41.42
40.96
41.47
42.82
44.75
46.98
49.22
51.39
53.63
56.26
59.68
64.15
69.62
75.41
80.19
81.98
78.46
67.61
48.39
21.38
-11.09
-45.33
-77.31
-103.78
-123.13
-135.66
-142.98
-147.20
-150.01
-152.28
-154.09
-155.03
-154.54
-151.98
-146.66
-137.74
-124.60
-107.17
-86.38
-64.15
-42.96
-25.23
-12.48
-5.12
-2.39
-2.77
-4.51
-6.10
-6.69
-6.19
-5.23
-4.70
-5.30
-7.03
-9.13
-10.28
-9.26
-5.52
0.57
7.89
15.07
20.94
24.78
26.24
25.17
21.52
15.43
7.33
-1.97
-11.45
-20.21
-27.80
-34.31
-40.15
-45.63
-50.63
-54.48
-56.20
-54.81
-49.77
-41.08
-29.30
-15.45
-0.77
13.40
25.79
35.38
41.63
44.53
44.64
42.88
40.41
38.47
38.30
40.97
47.15
56.84
69.22
82.84
96.02
107.36
116.00
121.66
124.31
124.01
120.78
114.80
106.62
97.19
87.60
78.68
70.69
63.20
55.45
46.74
36.82
26.14
15.73
6.92
0.98
-1.26
0.52
6.03
14.57
25.16
36.63
47.79
57.49
64.83
69.28
70.87
70.20
68.19
65.86
63.98
62.99
62.86
63.27
63.71
63.64
62.58
60.17
56.18
50.64
43.72
35.82
27.43
19.06
11.06
3.60
-3.36
-9.97
-16.44
-22.90
-29.43
-36.10
-43.02
-50.32
-58.00
-65.77
-72.83
-78.02
-80.11
-78.20
-72.12
-62.54
-50.78
-38.37
-26.65
-16.53
-8.35
-2.14
2.27
5.02
6.16
5.60
3.27
-0.93
-6.87
-14.10
-21.88
-29.23
-35.26
-39.40
-41.60
-42.24
-41.96
-41.34
-40.73
-40.24
-39.80
-39.33
-38.83
-38.34
-37.97
-37.80
-37.97
-38.74
-40.52
-43.63
-48.05
-53.11
-57.49
-59.45
-57.40
-50.46
-38.76
-23.37
-5.95
11.70
28.03
41.92
52.68
60.00
64.04
65.35
64.89
63.72
62.79
62.65
63.33
64.24
64.36
62.58
57.97
50.22
39.81
27.94
16.14
5.68
-2.87
-9.80
-16.00
-22.45
-29.62
-37.40
-45.20
-52.49
-59.18
-65.77
-73.01
-81.41
-90.76
-99.97
-107.38
-111.34
-110.80
-105.59
-96.46
-84.59
-71.26
-57.44
-43.75
-30.64
-18.54
-8.06
0.14
5.62
8.33
8.77
7.79
6.36
5.04
4.01
2.99
1.51
-0.88
-4.54
-9.85
-17.14
-26.64
-38.16
-51.02
-64.14
-76.45
-87.35
-96.84
-105.31
-113.09
-120.09
-125.72
-129.39
-130.95
-130.98
-130.61
-130.84
-131.94
-133.14
-132.85
-129.28
-121.23
-108.48
-91.89
-72.98
-53.43
-34.61
-17.41
-2.30
10.53
20.95
29.01
34.93
39.24
42.67
45.94
49.49
53.30
57.02
60.08
62.07
62.86
62.67
61.93
61.18
60.79
60.96
61.57
62.25
62.45
61.60
59.27
55.38
50.16
44.15
37.89
31.77
25.78
19.55
12.55
4.27
-5.40
-16.05
-26.68
-35.85
-42.01
-43.88
-40.82
-32.97
-21.29
-7.20
7.74
22.15
35.04
45.87
54.36
60.44
64.15
65.63
65.13
63.08
59.98
56.34
52.59
49.00
45.71
42.74
40.13
37.87
36.03
34.56
33.36
32.22
30.83
28.90
26.18
22.57
18.09
12.87
7.13
1.12
-4.95
-10.98
-16.98
-23.11
-29.54
-36.51
-44.16
-52.56
-61.61
-70.92
-79.73
-86.92
-91.10
-90.97
-85.71
-75.24
-60.36
-42.59
-23.75
-5.56
10.70
24.36
35.32
43.78
50.08
54.45
56.97
57.62
56.39
53.45
49.15
43.98
38.45
33.00
27.95
23.57
20.13
17.90
17.08
17.68
19.45
21.80
24.02
25.36
25.26
23.46
20.01
15.21
9.54
3.50
-2.53
-8.36
-13.98
-19.52
-25.16
-31.09
-37.47
-44.43
-51.90
-59.50
-66.42
-71.47
-73.28
-70.79
-63.57
-52.05
-37.50
-21.57
-5.95
7.98
19.29
27.49
32.40
34.07
32.77
29.01
23.53
17.23
11.01
5.55
1.19
-2.09
-4.49
-6.26
-7.48
-8.04
-7.67
-6.21
-3.71
-0.51
2.77
5.53
7.33
8.10
8.10
7.77
7.50
7.40
7.28
6.71
5.16
2.18
-2.48
-8.78
-16.31
-24.14
-30.94
-35.16
-35.48
-31.23
-22.66
-10.91
2.37
15.54
27.37
37.15
44.69
50.04
53.32
54.60
54.01
51.77
48.33
44.29
40.25
36.72
33.90
31.69
29.78
27.86
25.74
23.51
21.41
19.74
18.63
17.97
17.34
16.21
14.09
10.70
6.11
0.67
-5.12
-10.82
-16.17
-21.19
-26.12
-31.33
-37.22
-44.12
-52.14
-61.02
-69.94
-77.54
-82.13
-82.16
-76.76
-66.04
-51.13
-33.82
-16.02
0.75
15.51
27.82
37.58
44.82
49.70
52.44
53.40
52.97
51.51
49.30
46.48
43.18
39.57
35.88
32.45
29.54
27.25
25.55
24.22
23.02
21.74
20.23
18.39
16.16
13.43
10.12
6.26
1.97
-2.46
-6.76
-10.71
-14.23
-17.45
-20.65
-24.22
-28.60
-34.13
-40.92
-48.62
-56.31
-62.56
-65.73
-64.49
-58.34
-47.79
-34.32
-19.83
-6.17
5.38
14.19
20.21
23.74
25.20
25.05
23.63
21.26
18.11
14.30
9.95
5.27
0.65
-3.39
-6.27
-7.64
-7.40
-5.81
-3.27
-0.25
2.90
5.99
8.93
11.62
13.88
15.42
15.99
15.39
13.54
10.50
6.40
1.45
-4.07
-9.84
-15.46
-20.59
-25.02
-28.71
-31.76
-34.24
-35.89
-36.06
-33.77
-28.06
-18.46
-5.37
9.93
25.56
39.66
50.85
58.60
63.04
64.75
64.40
62.46
59.20
54.79
49.43
43.37
36.95
30.47
24.19
18.24
12.71
7.78
3.71
0.89
-0.31
0.28
2.46
5.61
8.86
11.35
12.54
12.40
11.28
9.75
8.20
6.69
4.87
2.15
-2.03
-7.85
-14.95
-22.36
-28.70
-32.49
-32.55
-28.40
-20.32
-9.36
2.89
14.75
24.77
32.02
36.17
37.46
36.53
34.14
30.97
27.49
23.94
20.42
16.98
13.76
10.87
8.38
6.22
4.13
1.82
-0.91
-4.05
-7.37
-10.54
-13.34
-15.71
-17.86
-20.07
-22.60
-25.54
-28.81
-32.24
-35.74
-39.36
-43.29
-47.83
-53.24
-59.75
-67.50
-76.43
-86.21
-96.08
-104.87
-111.22
-113.90
-112.26
-106.43
-97.23
-85.86
-73.56
-61.26
-49.54
-38.73
-29.01
-20.57
-13.50
-7.76
-3.13
0.81
4.49
8.28
12.42
16.95
21.69
26.45
30.95
35.04
38.78
42.40
46.20
50.45
55.15
59.98
64.31
67.40
68.69
68.08
66.00
63.34
61.09
59.89
59.79
60.16
59.94
58.05
53.66
46.34
35.97
22.63
6.62
-11.40
-30.35
-48.73
-65.03
-78.19
-87.85
-94.27
-97.96
-99.12
-97.42
-92.28
-83.43
-71.57
-58.47
-46.57
-37.93
-33.39
-32.11
-31.97
-30.45
-25.74
-17.29
-5.81
7.28
20.53
32.92
43.96
53.43
61.18
67.02
70.78
72.52
72.59
71.53
69.86
67.93
65.80
63.40
60.60
57.48
54.27
51.38
49.11
47.55
46.39
44.98
42.54
38.38
32.22
24.35
15.63
7.36
0.93
-2.49
-2.27
1.59
8.46
17.32
27.01
36.46
44.89
51.87
57.32
61.56
65.15
68.75
72.88
77.76
83.21
88.75
93.85
98.17
101.75
105.16
109.43
116.08
126.79
142.94
164.89
191.41
219.59
245.56
265.67
277.71
281.25
277.16
266.58
250.06
227.35
197.94
161.66
118.99
70.78
17.85
-38.86
-97.65
-155.26
-206.84
-246.77
-270.24
-274.84
-261.29
-233.21
-196.00
-155.65
-117.78
-87.22
-67.73
-61.50
-68.43
-85.74
-108.13
-129.07
-142.75
-145.85
-138.51
-123.77
-105.87
-88.35
-72.67
-58.28
-43.84
-28.82
-14.31
-2.66
3.90
4.57
0.54
-5.65
-11.48
-15.69
-18.58
-21.22
-24.32
-27.23
-28.13
-25.00
-16.91
-4.91
8.03
17.98
21.41
16.39
3.21
-15.82
-37.10
-56.97
-72.84
-83.97
-91.65
-98.56
-107.59
-120.32
-136.10
-151.72
-162.33
-163.17
-151.33
-127.02
-93.46
-55.70
-18.75
13.99
41.29
63.61
81.85
96.30
106.34
111.06
110.23
104.95
97.54
90.58
85.89
83.69
82.68
80.75
76.00
67.50
55.49
40.98
25.07
8.43
-8.81
-26.68
-44.91
-62.50
-77.67
-88.30
-92.45
-88.94
-77.83
-60.49
-39.44
-17.77
1.56
16.41
25.81
30.06
30.28
27.93
24.37
20.69
17.73
16.25
16.82
19.65
24.36
29.96
35.17
38.91
40.78
41.16
40.95
41.09
42.15
44.09
46.38
48.30
49.28
49.01
47.47
44.85
41.39
37.28
32.62
27.51
22.08
16.62
11.51
7.15
3.81
1.51
-0.05
-1.41
-3.19
-5.88
-9.72
-14.54
-19.81
-24.74
-28.42
-30.06
-29.23
-25.99
-21.00
-15.36
-10.43
-7.49
-7.34
-10.19
-15.64
-22.85
-30.80
-38.56
-45.38
-50.74
-54.40
-56.33
-56.69
-55.83
-54.12
-51.84
-49.13
-46.02
-42.48
-38.62
-34.67
-30.93
-27.71
-25.17
-23.33
-22.12
-21.40
-21.06
-21.03
-21.31
-21.91
-22.87
-24.17
-25.70
-27.26
-28.62
-29.62
-30.21
-30.49
-30.63
-30.74
-30.74
-30.32
-28.99
-26.23
-21.66
-15.14
-6.90
2.57
12.62
22.58
31.95
40.40
47.80
54.16
59.59
64.15
67.89
70.77
72.77
73.90
74.27
74.02
73.31
72.18
70.62
68.55
66.00
63.14
60.29
57.77
55.71
54.00
52.38
50.55
48.37
45.81
42.88
39.56
35.78
31.44
26.60
21.48
16.41
11.66
7.24
2.80
-2.26
-8.55
-16.39
-25.62
-35.58
-45.32
-53.91
-60.69
-65.48
-68.44
-69.92
-70.26
-69.67
-68.33
-66.44
-64.34
-62.55
-61.57
-61.76
-63.22
-65.76
-68.94
-72.27
-75.23
-77.38
-78.40
-78.04
-76.17
-72.79
-68.07
-62.38
-56.20
-50.14
-44.69
-40.23
-36.86
-34.44
-32.54
-30.63
-28.09
-24.46
-19.52
-13.35
-6.36
0.86
7.59
13.12
16.86
18.50
18.02
15.77
12.26
7.97
3.15
-2.21
-8.18
-14.69
-21.23
-26.92
-30.69
-31.68
-29.52
-24.45
-17.20
-8.76
-0.07
8.12
15.34
21.34
26.03
29.36
31.33
31.91
31.22
29.50
27.16
24.67
22.46
20.81
19.81
19.40
19.51
20.09
21.10
22.49
24.15
25.90
27.54
28.88
29.73
29.90
29.28
27.82
25.60
22.82
19.75
16.60
13.49
10.43
7.29
3.95
0.24
-3.93
-8.60
-13.66
-18.80
-23.50
-27.04
-28.70
-27.92
-24.51
-18.70
-11.04
-2.33
6.61
15.05
22.44
28.44
32.87
35.67
36.89
36.67
35.25
32.95
30.08
26.87
23.39
19.57
15.39
10.98
6.79
3.41
1.37
0.83
1.46
2.48
3.02
2.41
0.41
-2.72
-6.52
-10.44
-14.18
-17.67
-21.04
-24.47
-28.09
-31.91
-35.79
-39.57
-43.09
-46.34
-49.42
-52.54
-55.90
-59.60
-63.50
-67.25
-70.24
-71.72
-70.99
-67.56
-61.34
-52.75
-42.60
-31.92
-21.63
-12.41
-4.52
2.07
7.53
12.00
15.51
18.00
19.40
19.70
19.04
17.63
15.79
13.87
12.24
11.27
11.21
12.14
13.84
15.88
17.66
18.61
18.46
17.25
15.37
13.34
11.58
10.21
8.97
7.37
4.92
1.46
-2.70
-6.92
-10.41
-12.66
-13.63
-13.81
-14.00
-14.98
-17.17
-20.44
-24.07
-26.95
-27.92
-26.10
-21.20
-13.69
-4.66
4.41
12.06
17.21
19.57
19.62
18.63
18.12
19.31
22.58
27.28
31.97
35.03
35.36
32.72
27.81
21.76
15.69
10.30
5.81
2.17
-0.70
-2.79
-4.06
-4.57
-4.63
-4.71
-5.34
-6.79
-8.98
-11.43
-13.50
-14.72
-14.94
-14.48
-13.75
-12.99
-11.96
-9.90
-5.86
0.96
10.72
22.88
36.18
49.21
60.79
70.42
78.31
85.21
91.89
98.74
105.51
111.26
114.72
114.63
110.21
101.36
88.70
73.36
56.72
40.14
24.65
10.94
-0.71
-10.21
-17.60
-22.89
-26.17
-27.62
-27.61
-26.64
-25.20
-23.69
-22.29
-20.98
-19.67
-18.24
-16.68
-15.16
-13.99
-13.56
-14.20
-16.09
-19.11
-22.94
-27.16
-31.39
-35.41
-39.26
-43.05
-46.92
-50.90
-54.89
-58.60
-61.59
-63.28
-62.99
-60.09
-54.13
-45.11
-33.46
-20.03
-5.89
7.93
20.66
31.85
41.31
49.09
55.27
59.90
63.01
64.67
65.01
64.30
62.86
61.00
58.92
56.62
53.94
50.75
46.98
42.78
38.44
34.32
30.65
27.53
24.91
22.69
20.78
19.18
17.91
17.04
16.66
16.85
17.72
19.28
21.33
23.42
24.83
24.71
22.35
17.46
10.23
1.34
-8.24
-17.61
-26.06
-33.23
-39.09
-43.80
-47.55
-50.37
-51.95
-51.76
-49.14
-43.68
-35.41
-24.83
-12.78
-0.13
12.33
23.91
33.83
41.21
45.10
44.92
40.79
33.74
25.50
17.97
12.59
10.04
10.16
12.25
15.53
19.41
23.57
27.87
32.02
35.53
37.76
38.09
36.28
32.62
27.88
23.10
19.18
16.64
15.43
15.11
15.08
14.90
14.44
13.84
13.16
12.24
10.45
7.09
1.64
-5.76
-14.26
-22.61
-29.70
-35.05
-38.91
-41.99
-44.88
-47.59
-49.45
-49.43
-46.72
-41.22
-33.55
-24.88
-16.40
-8.94
-2.89
1.67
4.73
6.19
5.95
4.06
0.96
-2.54
-5.40
-6.72
-5.90
-2.83
2.20
8.72
16.20
24.20
32.26
39.74
45.87
49.79
50.84
48.92
44.64
39.14
33.69
29.17
25.78
23.11
20.51
17.56
14.31
11.09
8.22
5.66
3.04
-0.15
-4.17
-8.88
-13.75
-18.23
-22.00
-25.18
-28.16
-31.42
-35.21
-39.44
-43.64
-47.11
-49.08
-48.93
-46.36
-41.45
-34.71
-26.91
-18.88
-11.25
-4.42
1.49
6.46
10.47
13.47
15.41
16.34
16.48
16.19
15.84
15.72
15.92
16.42
17.16
18.09
19.29
20.85
22.77
24.87
26.77
28.08
28.56
28.21
27.29
26.17
25.17
24.38
23.69
22.84
21.56
19.67
17.14
13.99
10.35
6.37
2.17
-2.14
-6.54
-11.08
-15.87
-21.04
-26.64
-32.62
-38.76
-44.66
-49.77
-53.49
-55.25
-54.68
-51.67
-46.51
-39.74
-32.15
-24.55
-17.64
-11.88
-7.43
-4.12
-1.52
0.89
3.59
6.78
10.32
13.80
16.70
18.53
18.98
17.96
15.59
12.22
8.46
4.97
2.44
1.26
1.36
2.24
3.19
3.54
3.02
1.78
0.27
-0.96
-1.63
-1.66
-1.26
-0.68
-0.09
0.38
0.62
0.39
-0.73
-3.30
-7.65
-13.75
-20.97
-28.30
-34.72
-39.63
-43.11
-45.68
-47.94
-50.04
-51.51
-51.50
-49.20
-44.40
-37.61
-29.91
-22.42
-15.93
-10.65
-6.39
-2.77
0.46
3.27
5.50
6.91
7.40
7.10
6.25
5.14
4.02
3.07
2.31
1.81
1.61
1.78
2.35
3.21
4.09
4.66
4.59
3.76
2.28
0.40
-1.61
-3.56
-5.43
-7.23
-8.90
-10.28
-11.17
-11.44
-11.18
-10.70
-10.52
-11.13
-12.89
-15.97
-20.27
-25.42
-30.83
-35.66
-38.97
-40.01
-38.36
-34.17
-28.04
-20.84
-13.40
-6.39
-0.22
4.87
8.75
11.35
12.74
13.14
12.89
12.34
11.77
11.29
10.93
10.61
10.25
9.76
9.07
8.20
7.24
6.40
5.85
5.68
5.73
5.75
5.43
4.63
3.41
1.97
0.50
-0.90
-2.26
-3.74
-5.56
-7.94
-11.10
-15.27
-20.48
-26.40
-32.24
-36.73
-38.49
-36.50
-30.65
-21.98
-12.48
-4.50
-0.06
-0.21
-4.89
-13.03
-22.99
-33.03
-41.67
-47.93
-51.37
-52.16
-50.95
-48.66
-46.18
-44.16
-42.72
-41.50
-39.88
-37.26
-33.27
-28.03
-21.92
-15.53
-9.33
-3.64
1.45
5.97
9.94
13.31
15.94
17.73
18.68
19.02
19.13
19.39
20.11
21.31
22.79
24.13
24.88
24.67
23.40
21.35
19.20
17.89
18.31
20.98
25.81
32.08
38.73
44.73
49.41
52.60
54.47
55.29
55.22
54.33
52.68
50.44
47.88
45.17
42.31
39.03
35.01
30.11
24.57
19.01
14.21
10.79
8.93
8.31
8.32
8.32
7.90
6.96
5.67
4.32
3.12
2.15
1.27
0.31
-0.90
-2.35
-3.90
-5.30
-6.29
-6.81
-6.93
-6.94
-7.18
-7.99
-9.55
-11.84
-14.60
-17.37
-19.55
-20.55
-19.94
-17.56
-13.49
-8.09
-1.86
4.63
10.78
16.04
19.97
22.28
22.94
22.11
20.15
17.51
14.65
11.97
9.76
8.21
7.37
7.15
7.41
7.99
8.87
10.15
12.02
14.63
17.99
21.91
26.05
30.10
33.85
37.24
40.33
43.13
45.51
47.14
47.58
46.49
43.76
39.58
34.38
28.76
23.22
18.11
13.59
9.56
5.83
2.14
-1.74
-5.97
-10.54
-15.28
-19.86
-23.82
-26.71
-28.18
-28.01
-26.22
-23.02
-18.79
-14.02
-9.21
-4.78
-1.03
1.95
4.23
6.05
7.61
9.11
10.65
12.28
14.00
15.75
17.44
18.95
20.16
21.04
21.70
22.31
23.03
23.91
24.83
25.60
26.05
26.18
26.11
26.04
26.01
25.95
25.59
24.68
23.15
21.07
18.62
15.93
12.95
9.47
5.19
-0.06
-6.27
-13.15
-20.36
-27.51
-34.32
-40.49
-45.76
-49.84
-52.49
-53.66
-53.48
-52.27
-50.35
-47.94
-45.09
-41.74
-37.91
-33.82
-30.02
-27.23
-26.16
-27.19
-30.22
-34.58
-39.16
-42.83
-44.78
-44.81
-43.30
-40.97
-38.53
-36.34
-34.40
-32.44
-30.29
-27.95
-25.69
-23.86
-22.67
-22.12
-22.05
-22.26
-22.60
-23.03
-23.49
-23.80
-23.58
-22.41
-19.99
-16.28
-11.56
-6.38
-1.39
2.79
5.69
7.00
6.64
4.81
2.03
-0.90
-3.06
-3.63
-2.21
1.12
5.80
11.02
16.01
20.22
23.40
25.57
26.85
27.37
27.13
26.09
24.20
21.47
18.04
14.18
10.23
6.56
3.46
1.08
-0.59
-1.68
-2.37
-2.85
-3.22
-3.50
-3.73
-3.95
-4.30
-4.94
-6.01
-7.55
-9.51
-11.75
-14.09
-16.43
-18.73
-21.02
-23.39
-25.95
-28.74
-31.79
-34.98
-38.09
-40.76
-42.51
-42.88
-41.48
-38.15
-32.98
-26.33
-18.79
-11.02
-3.69
2.72
7.95
12.03
15.13
17.44
18.96
19.55
18.98
17.11
14.08
10.32
6.44
3.06
0.69
-0.42
-0.25
1.08
3.31
6.15
9.16
11.80
13.40
13.33
11.17
6.91
1.07
-5.41
-11.43
-16.16
-19.27
-21.13
-22.51
-24.21
-26.70
-29.82
-32.93
-35.14
-35.65
-34.06
-30.42
-25.16
-18.85
-12.02
-5.03
1.90
8.67
15.10
20.91
25.76
29.33
31.47
32.19
31.67
30.16
27.91
25.12
22.03
18.92
16.11
13.95
12.65
12.30
12.79
13.83
15.06
16.17
16.89
17.03
16.56
15.49
13.90
11.93
9.71
7.35
4.84
2.12
-0.99
-4.65
-8.90
-13.60
-18.37
-22.61
-25.61
-26.74
-25.49
-21.82
-16.08
-9.13
-2.05
4.13
8.73
11.63
13.17
13.97
14.62
15.42
16.40
17.38
18.12
18.49
18.45
18.04
17.38
16.56
15.71
14.97
14.48
14.31
14.43
14.73
15.04
15.18
15.00
14.34
13.11
11.24
8.67
5.45
1.78
-2.08
-5.85
-9.37
-12.68
-16.01
-19.67
-23.92
-28.83
-34.23
-39.71
-44.67
-48.42
-50.29
-49.79
-46.76
-41.49
-34.68
-27.28
-20.20
-14.07
-9.08
-5.14
-2.03
0.42
2.26
3.45
4.02
4.12
3.99
3.83
3.79
4.01
4.64
6.01
8.51
12.46
17.93
24.70
32.27
40.09
47.58
54.23
59.47
62.70
63.42
61.35
56.75
50.40
43.38
36.76
31.24
27.02
23.98
21.85
20.43
19.48
18.53
16.70
12.89
6.18
-3.56
-15.40
-27.50
-37.73
-44.46
-47.15
-46.36
-43.33
-39.36
-35.29
-31.39
-27.54
-23.64
-19.85
-16.50
-13.84
-11.71
-9.39
-5.78
0.15
8.90
20.12
32.67
45.00
55.66
63.57
68.26
69.72
68.27
64.39
58.73
52.05
45.20
38.94
33.76
29.75
26.58
23.68
20.48
16.55
11.82
6.39
0.51
-5.66
-12.09
-18.86
-25.94
-33.05
-39.58
-44.76
-47.87
-48.58
-47.04
-43.79
-39.55
-34.93
-30.26
-25.60
-20.88
-16.09
-11.34
-6.87
-2.88
0.58
3.63
6.55
9.65
13.12
16.98
21.09
25.22
29.30
33.46
38.08
43.57
50.17
57.78
65.90
73.80
80.66
85.71
88.34
88.14
85.05
79.37
71.72
62.78
53.05
42.65
31.39
19.18
6.45
-5.68
-15.60
-21.72
-23.05
-19.51
-11.89
-1.38
10.79
23.72
36.88
49.95
62.57
74.15
83.66
89.61
90.17
83.60
68.86
46.16
17.17
-15.18
-47.55
-77.13
-102.42
-123.41
-141.12
-156.86
-171.46
-184.95
-196.76
-206.18
-212.76
-216.52
-217.63
-216.21
-212.00
-204.50
-193.27
-178.43
-160.81
-141.91
-123.44
-106.66
-91.96
-78.78
-65.90
-52.08
-36.52
-19.16
-0.54
18.49
37.07
54.44
69.93
82.92
92.87
99.57
103.28
104.81
105.28
105.76
106.85
108.56
110.39
111.52
111.21
108.96
104.67
98.61
91.36
83.69
76.36
70.00
64.98
61.41
59.15
57.86
57.11
56.44
55.48
53.98
51.88
49.30
46.50
43.69
40.99
38.32
35.43
32.04
27.98
23.35
18.41
13.56
9.17
5.44
2.45
0.14
-1.54
-2.63
-3.12
-3.12
-2.83
-2.59
-2.81
-3.85
-5.97
-9.23
-13.47
-18.32
-23.24
-27.52
-30.45
-31.53
-30.65
-28.16
-24.75
-21.21
-18.09
-15.55
-13.34
-11.08
-8.50
-5.66
-2.89
-0.64
0.79
1.34
1.18
0.61
-0.13
-0.90
-1.62
-2.29
-2.83
-3.16
-3.21
-3.02
-2.71
-2.48
-2.53
-2.92
-3.52
-4.13
-4.53
-4.63
-4.57
-4.66
-5.24
-6.48
-8.27
-10.23
-11.86
-12.76
-12.69
-11.73
-10.16
-8.41
-6.99
-6.44
-7.19
-9.40
-12.80
-16.72
-20.28
-22.77
-24.04
-24.63
-25.53
-27.72
-31.69
-37.06
-42.73
-47.28
-49.43
-48.49
-44.46
-37.94
-29.92
-21.48
-13.57
-6.86
-1.66
2.08
4.66
6.51
8.10
9.82
11.92
14.47
17.29
20.03
22.18
23.32
23.27
22.20
20.57
18.93
17.66
16.86
16.40
16.04
15.69
15.39
15.30
15.44
15.66
15.75
15.55
15.07
14.48
13.93
13.31
12.31
10.55
7.88
4.50
0.94
-2.27
-4.86
-7.01
-9.23
-11.94
-15.26
-18.90
-22.34
-25.21
-27.48
-29.47
-31.61
-34.06
-36.52
-38.35
-38.86
-37.72
-35.09
-31.51
-27.46
-23.15
-18.42
-13.01
-6.90
-0.51
5.40
10.07
13.07
14.42
14.53
13.87
12.82
11.52
10.12
8.83
7.95
7.71
8.15
9.06
10.05
10.82
11.25
11.45
11.65
11.99
12.40
12.65
12.43
11.57
10.11
8.26
6.29
4.42
2.82
1.61
0.89
0.69
0.83
0.99
0.71
-0.30
-2.12
-4.56
-7.31
-10.15
-13.01
-15.99
-19.14
-22.41
-25.63
-28.61
-31.15
-33.15
-34.43
-34.80
-34.01
-31.91
-28.51
-24.02
-18.79
-13.23
-7.77
-2.83
1.19
3.99
5.45
5.60
4.61
2.69
0.02
-3.23
-6.85
-10.53
-13.89
-16.47
-17.90
-17.93
-16.53
-13.91
-10.49
-6.74
-3.01
0.59
4.12
7.69
11.17
14.14
15.98
16.20
14.72
11.95
8.65
5.57
3.29
2.11
2.09
3.22
5.39
8.37
11.76
15.07
17.80
19.49
19.89
18.88
16.46
12.80
8.19
3.02
-2.16
-6.75
-10.16
-11.83
-11.46
-9.09
-5.23
-0.71
3.57
6.91
9.11
10.33
10.90
10.93
10.32
8.75
6.13
2.70
-1.02
-4.44
-7.19
-9.22
-10.59
-11.29
-11.16
-9.97
-7.60
-4.25
-0.28
3.86
7.83
11.41
14.43
16.69
18.01
18.36
17.93
17.17
16.45
15.93
15.35
14.24
12.19
9.19
5.62
2.04
-1.16
-4.07
-7.15
-11.08
-16.28
-22.68
-29.67
-36.24
-41.33
-44.04
-43.81
-40.53
-34.44
-26.17
-16.59
-6.74
2.39
10.04
15.76
19.55
21.69
22.68
22.97
22.88
22.48
21.78
20.71
19.30
17.69
16.10
14.68
13.53
12.67
12.14
12.02
12.41
13.29
14.49
15.65
16.37
16.33
15.53
14.13
12.42
10.60
8.68
6.53
4.05
1.24
-1.73
-4.61
-7.22
-9.54
-11.80
-14.31
-17.38
-21.21
-25.82
-31.08
-36.68
-42.14
-46.81
-49.95
-50.88
-49.12
-44.65
-37.94
-29.79
-21.18
-13.00
-5.90
-0.27
3.63
5.70
5.93
4.47
1.68
-1.90
-5.71
-9.31
-12.50
-15.31
-17.82
-20.03
-21.72
-22.51
-22.10
-20.40
-17.72
-14.68
-11.94
-9.98
-8.90
-8.44
-8.20
-7.79
-7.08
-6.18
-5.38
-5.05
-5.42
-6.57
-8.32
-10.38
-12.44
-14.25
-15.81
-17.34
-19.30
-22.24
-26.60
-32.49
-39.55
-46.90
-53.29
-57.37
-58.12
-55.04
-48.37
-38.85
-27.52
-15.36
-3.15
8.56
19.29
28.57
35.92
41.07
44.01
45.18
45.35
45.41
46.03
47.52
49.74
52.24
54.56
56.46
58.07
59.86
62.38
66.02
70.74
75.97
80.78
84.00
84.47
81.36
74.33
63.82
51.08
37.96
26.55
18.35
13.81
12.00
11.08
8.95
4.20
-3.43
-13.18
-23.89
-34.81
-46.06
-58.51
-73.19
-90.48
-109.62
-128.73
-145.43
-157.69
-164.40
-165.52
-161.77
-154.05
-143.10
-129.41
-113.52
-96.37
-79.39
-64.15
-51.88
-42.94
-36.67
-31.77
-26.85
-21.07
-14.37
-7.34
-0.76
4.85
9.52
13.76
18.19
23.24
28.90
34.79
40.32
44.96
48.37
50.47
51.32
51.10
50.01
48.25
45.99
43.32
40.24
36.73
32.80
28.51
24.03
19.50
15.04
10.68
6.36
2.02
-2.40
-6.99
-11.81
-17.02
-22.69
-28.67
-34.43
-39.08
-41.44
-40.48
-35.67
-27.19
-15.97
-3.42
8.99
20.01
28.88
35.31
39.37
41.35
41.63
40.59
38.63
36.10
33.34
30.60
28.11
25.99
24.38
23.38
23.06
23.47
24.62
26.40
28.64
31.10
33.48
35.50
36.86
37.37
36.94
35.62
33.64
31.33
29.04
26.97
25.11
23.29
21.22
18.64
15.41
11.56
7.26
2.79
-1.53
-5.43
-8.72
-11.43
-13.76
-16.10
-18.93
-22.67
-27.47
-33.14
-39.08
-44.32
-47.73
-48.28
-45.28
-38.63
-28.87
-16.99
-4.21
8.30
19.66
29.26
36.83
42.31
45.80
47.51
47.74
46.85
45.17
43.04
40.76
38.64
36.92
35.78
35.27
35.31
35.76
36.49
37.42
38.49
39.64
40.71
41.46
41.68
41.28
40.34
38.99
37.41
35.62
33.50
30.84
27.44
23.28
18.46
13.22
7.85
2.62
-2.27
-6.73
-10.65
-14.06
-16.99
-19.64
-22.29
-25.32
-29.07
-33.59
-38.59
-43.22
-46.33
-46.70
-43.51
-36.62
-26.71
-15.02
-2.97
8.23
17.84
25.58
31.41
35.40
37.63
38.17
37.21
35.04
32.06
28.70
25.28
22.09
19.34
17.19
15.76
15.14
15.26
16.00
17.18
18.56
19.91
21.01
21.62
21.57
20.78
19.28
17.25
14.96
12.66
10.44
8.26
5.92
3.22
0.07
-3.45
-7.14
-10.76
-14.12
-17.21
-20.06
-22.79
-25.50
-28.36
-31.53
-35.22
-39.45
-43.96
-48.10
-50.88
-51.31
-48.65
-42.77
-34.16
-23.78
-12.79
-2.21
7.22
15.05
21.08
25.25
27.59
28.21
27.37
25.47
22.97
20.34
17.90
15.85
14.24
13.09
12.43
12.34
12.90
14.15
16.01
18.27
20.62
22.69
24.17
24.85
24.64
23.61
21.93
19.83
17.55
15.23
12.89
10.41
7.65
4.50
0.98
-2.75
-6.40
-9.73
-12.58
-14.96
-17.03
-19.11
-21.53
-24.61
-28.50
-33.15
-38.16
-42.79
-46.06
-46.98
-44.80
-39.37
-31.18
-21.27
-10.90
-1.19
7.10
13.71
18.72
22.34
24.77
26.15
26.56
26.16
25.13
23.80
22.42
21.25
20.40
19.88
19.65
19.61
19.71
19.94
20.36
21.01
21.88
22.83
23.63
24.03
23.87
23.14
21.96
20.53
18.98
17.36
15.64
13.71
11.52
9.05
6.31
3.35
0.24
-2.93
-6.05
-9.01
-11.76
-14.38
-17.01
-19.92
-23.32
-27.29
-31.62
-35.79
-38.96
-40.17
-38.65
-34.03
-26.61
-17.22
-7.04
2.76
11.33
18.27
23.54
27.28
29.64
30.67
30.40
28.97
26.62
23.79
20.93
18.46
16.59
15.34
14.61
14.25
14.16
14.33
14.78
15.51
16.40
17.31
18.01
18.32
18.12
17.39
16.20
14.68
13.00
11.29
9.59
7.84
5.85
3.44
0.51
-2.85
-6.38
-9.78
-12.83
-15.44
-17.77
-20.01
-22.39
-25.10
-28.25
-31.85
-35.78
-39.78
-43.35
-45.83
-46.50
-44.81
-40.55
-33.99
-25.78
-16.85
-8.08
-0.20
6.37
11.46
15.06
17.21
17.99
17.53
16.06
13.96
11.65
9.53
7.83
6.59
5.66
4.92
4.26
3.76
3.56
3.76
4.37
5.28
6.28
7.17
7.78
8.04
7.94
7.53
6.87
6.06
5.22
4.46
3.79
3.16
2.37
1.21
-0.50
-2.78
-5.44
-8.19
-10.65
-12.58
-13.99
-15.18
-16.61
-18.78
-22.01
-26.28
-31.11
-35.69
-39.02
-40.20
-38.68
-34.41
-27.85
-19.80
-11.20
-2.85
4.60
10.80
15.50
18.66
20.34
20.78
20.27
19.24
17.99
16.78
15.68
14.69
13.80
13.05
12.53
12.34
12.53
13.08
13.82
14.58
15.17
15.49
15.49
15.17
14.54
13.59
12.35
10.90
9.36
7.94
6.77
5.90
5.16
4.26
2.89
0.83
-1.87
-4.94
-7.99
-10.65
-12.79
-14.52
-16.15
-18.11
-20.73
-24.17
-28.30
-32.73
-36.78
-39.66
-40.58
-38.99
-34.73
-28.14
-19.98
-11.24
-2.88
4.41
10.29
14.74
17.88
19.92
20.97
21.09
20.34
18.90
17.07
15.24
13.74
12.76
12.23
11.96
11.75
11.57
11.53
11.83
12.60
13.75
15.01
16.01
16.47
16.31
15.62
14.61
13.45
12.19
10.80
9.21
7.36
5.30
3.14
0.97
-1.13
-3.15
-5.12
-7.07
-9.08
-11.17
-13.37
-15.78
-18.52
-21.73
-25.48
-29.57
-33.50
-36.49
-37.74
-36.61
-32.95
-27.07
-19.70
-11.71
-3.91
3.07
8.86
13.27
16.26
17.90
18.35
17.94
17.00
15.85
14.73
13.73
12.88
12.13
11.47
10.94
10.68
10.84
11.51
12.69
14.22
15.85
17.37
18.61
19.53
20.18
20.57
20.71
20.54
20.02
19.12
17.90
16.45
14.89
13.30
11.72
10.16
8.62
7.08
5.55
4.03
2.51
0.92
-0.87
-2.98
-5.38
-7.84
-9.93
-11.18
-11.24
-10.12
-8.13
-5.87
-3.96
-2.92
-3.02
-4.34
-6.74
-10.00
-13.83
-17.91
-21.91
-25.54
-28.60
-31.00
-32.74
-33.86
-34.33
-34.07
-32.94
-30.79
-27.54
-23.28
-18.22
-12.73
-7.19
-1.92
2.88
7.14
10.88
14.13
16.89
19.09
20.58
21.25
21.09
20.29
19.16
18.07
17.28
16.81
16.38
15.46
13.50
10.06
5.02
-1.38
-8.59
-15.88
-22.45
-27.63
-30.91
-32.07
-31.20
-28.72
-25.24
-21.37
-17.69
-14.52
-12.06
-10.37
-9.45
-9.25
-9.65
-10.44
-11.37
-12.22
-12.87
-13.37
-13.85
-14.49
-15.32
-16.25
-17.06
-17.54
-17.58
-17.27
-16.84
-16.55
-16.57
-16.93
-17.46
-17.98
-18.40
-18.73
-19.12
-19.76
-20.75
-22.14
-23.89
-25.99
-28.37
-30.94
-33.43
-35.41
-36.28
-35.48
-32.65
-27.79
-21.29
-13.83
-6.23
0.77
6.67
11.24
14.48
16.56
17.68
17.97
17.49
16.25
14.35
12.06
9.76
7.88
6.75
6.49
7.01
8.07
9.41
10.82
12.19
13.46
14.58
15.46
16.03
16.24
16.09
15.59
14.75
13.50
11.74
9.37
6.43
3.04
-0.51
-3.94
-7.08
-9.99
-12.97
-16.41
-20.59
-25.47
-30.58
-35.12
-38.08
-38.66
-36.37
-31.29
-23.97
-15.28
-6.26
2.20
9.46
15.18
19.32
22.03
23.56
24.17
24.14
23.70
23.11
22.54
22.14
21.93
21.87
21.85
21.79
21.64
21.47
21.37
21.48
21.82
22.25
22.53
22.35
21.54
20.12
18.35
16.59
15.14
14.08
13.23
12.19
10.58
8.18
5.07
1.56
-1.94
-5.14
-8.00
-10.76
-13.74
-17.24
-21.35
-26.00
-30.92
-35.69
-39.71
-42.24
-42.53
-40.06
-34.79
-27.32
-18.69
-10.06
-2.28
4.26
9.60
13.93
17.40
20.03
21.81
22.80
23.20
23.26
23.17
22.94
22.47
21.62
20.36
18.78
17.16
15.83
15.12
15.23
16.15
17.66
19.39
20.94
21.97
22.28
21.75
20.34
18.03
14.87
11.05
6.93
2.96
-0.43
-3.03
-4.98
-6.67
-8.58
-11.05
-14.12
-17.53
-20.89
-23.88
-26.39
-28.66
-31.06
-33.97
-37.57
-41.72
-45.97
-49.54
-51.55
-51.26
-48.23
-42.53
-34.71
-25.69
-16.45
-7.81
-0.24
6.11
11.29
15.32
18.16
19.73
20.03
19.31
18.01
16.69
15.81
15.53
15.75
16.17
16.50
16.58
16.54
16.65
17.25
18.48
20.23
22.07
23.41
23.63
22.39
19.74
16.10
12.23
9.03
7.28
7.40
9.23
12.05
14.63
15.72
14.37
10.28
3.80
-4.31
-13.22
-22.30
-31.20
-39.77
-47.92
-55.53
-62.38
-68.21
-72.71
-75.66
-77.06
-77.19
-76.54
-75.60
-74.46
-72.62
-69.09
-62.79
-53.19
-40.60
-26.12
-11.12
3.38
17.00
29.96
42.64
55.19
67.33
78.49
87.97
95.16
99.51
100.46
97.59
90.76
80.43
67.79
54.47
42.11
31.87
24.16
18.81
15.37
13.40
12.62
12.79
13.52
14.17
13.94
12.17
8.56
3.47
-2.20
-7.18
-10.22
-10.52
-7.91
-2.96
3.34
9.92
16.00
21.23
25.56
29.08
31.75
33.40
33.83
32.99
31.09
28.63
26.21
24.36
23.38
23.38
24.24
25.75
27.60
29.36
30.54
30.70
29.60
27.36
24.38
21.26
18.61
16.80
16.02
16.19
17.15
18.65
20.42
22.18
23.73
25.03
26.21
27.55
29.34
31.66
34.35
36.87
38.50
38.49
36.35
32.08
26.30
20.11
14.92
11.98
12.13
15.48
21.44
28.80
36.00
41.55
44.38
44.13
41.17
36.55
31.53
27.27
24.45
23.19
23.16
23.80
24.60
25.20
25.39
24.97
23.81
21.80
19.07
16.04
13.43
12.08
12.69
15.57
20.55
27.09
34.39
41.62
48.00
52.76
55.14
54.42
50.13
42.32
31.74
19.75
8.02
-1.97
-9.36
-14.12
-16.95
-18.88
-20.81
-23.18
-25.86
-28.38
-30.25
-31.31
-31.70
-31.73
-31.72
-31.83
-32.15
-32.85
-34.28
-36.77
-40.37
-44.48
-48.00
-49.68
-48.78
-45.44
-40.77
-36.28
-33.29
-32.44
-33.53
-35.79
-38.17
-39.76
-40.00
-38.75
-36.28
-33.15
-30.09
-27.82
-26.93
-27.78
-30.39
-34.50
-39.48
-44.47
-48.44
-50.51
-50.17
-47.49
-43.02
-37.62
-32.11
-26.99
-22.49
-18.52
-14.99
-11.83
-9.12
-6.96
-5.35
-4.12
-2.86
-1.09
1.48
4.68
7.75
9.57
9.11
5.92
0.35
-6.61
-13.81
-20.42
-26.18
-31.27
-35.99
-40.39
-44.30
-47.49
-49.95
-51.96
-54.01
-56.46
-59.27
-62.03
-64.09
-64.82
-63.87
-61.15
-56.89
-51.43
-45.16
-38.51
-31.89
-25.76
-20.47
-16.25
-13.03
-10.50
-8.23
-5.93
-3.54
-1.29
0.52
1.74
2.48
3.13
4.26
6.44
10.09
15.29
21.64
28.18
33.51
36.12
34.86
29.34
20.17
8.78
-2.93
-13.11
-20.36
-23.94
-23.86
-20.82
-16.01
-10.88
-6.76
-4.54
-4.48
-6.22
-8.93
-11.72
-13.76
-14.54
-13.91
-12.08
-9.59
-7.17
-5.49
-5.02
-5.72
-7.16
-8.69
-9.73
-10.09
-9.92
-9.59
-9.42
-9.45
-9.44
-9.03
-7.96
-6.24
-4.15
-2.13
-0.51
0.54
1.15
1.50
1.81
2.10
2.24
2.02
1.31
0.19
-1.07
-2.14
-2.78
-2.94
-2.79
-2.53
-2.34
-2.30
-2.44
-2.72
-3.14
-3.66
-4.24
-4.79
-5.27
-5.69
-6.17
-6.85
-7.88
-9.32
-11.14
-13.21
-15.34
-17.33
-19.01
-20.35
-21.43
-22.38
-23.28
-24.06
-24.53
-24.44
-23.56
-21.77
-19.08
-15.60
-11.48
-6.99
-2.50
1.56
4.81
7.00
8.19
8.55
8.31
7.62
6.47
4.87
2.91
0.83
-1.06
-2.51
-3.45
-3.96
-4.18
-4.14
-3.79
-3.03
-1.88
-0.51
0.78
1.70
2.05
1.84
1.15
0.09
-1.32
-3.11
-5.32
-7.97
-11.00
-14.29
-17.74
-21.31
-24.97
-28.73
-32.57
-36.44
-40.38
-44.50
-49.00
-54.02
-59.55
-65.19
-70.31
-74.06
-75.62
-74.43
-70.28
-63.32
-53.98
-42.95
-31.06
-19.27
-8.54
0.27
6.55
10.08
11.05
9.96
7.48
4.33
1.07
-2.03
-4.89
-7.65
-10.51
-13.59
-16.89
-20.25
-23.37
-26.00
-28.11
-30.01
-32.33
-35.86
-41.27
-48.89
-58.56
-69.75
-81.72
-93.80
-105.48
-116.50
-126.76
-136.25
-144.91
-152.67
-159.51
-165.49
-170.85
-175.96
-181.21
-186.84
-192.76
-198.43
-202.80
-204.54
-202.28
-195.05
-182.53
-165.27
-144.48
-121.81
-98.96
-77.29
-57.69
-40.58
-26.07
-14.16
-4.83
1.99
6.58
9.47
11.45
13.44
16.29
20.53
26.35
33.51
41.53
49.86
57.95
65.39
71.82
77.00
80.75
83.04
83.86
83.27
81.30
77.94
73.17
67.03
59.64
51.23
42.13
32.62
22.91
13.02
2.74
-8.30
-20.40
-33.50
-46.90
-59.12
-68.18
-72.04
-69.30
-59.62
-43.87
-23.82
-1.54
21.06
42.53
61.88
78.38
91.44
100.64
105.83
107.25
105.51
101.40
95.75
89.25
82.51
76.10
70.54
66.36
63.95
63.49
64.92
67.93
71.99
76.39
80.33
83.02
83.86
82.59
79.25
74.17
67.67
60.04
51.47
42.16
32.30
22.06
11.50
0.59
-10.56
-21.42
-30.74
-36.73
-37.53
-31.88
-19.72
-2.25
18.43
39.98
60.43
78.54
93.69
105.55
113.91
118.47
119.02
115.65
108.86
99.61
89.04
78.30
68.25
59.40
51.95
45.87
41.10
37.56
35.18
33.78
33.01
32.38
31.37
29.60
26.95
23.57
19.80
16.01
12.37
8.81
4.94
0.20
-6.03
-14.14
-24.00
-34.77
-44.83
-52.02
-54.22
-49.92
-38.81
-21.89
-1.22
20.64
41.30
59.01
72.92
82.90
89.25
92.42
92.84
90.84
86.80
81.26
74.95
68.74
63.46
59.76
57.87
57.66
58.63
60.10
61.36
61.88
61.32
59.66
57.09
53.88
50.26
46.24
41.69
36.43
30.43
23.87
17.14
10.56
4.25
-1.82
-7.70
-13.11
-17.48
-20.12
-20.73
-19.55
-17.21
-14.11
-9.96
-3.83
5.28
17.46
31.41
44.75
54.97
60.57
61.64
59.60
56.28
53.06
50.48
48.59
47.60
48.23
51.65
58.93
70.40
85.33
102.08
118.50
132.48
142.41
147.37
147.22
142.54
134.47
124.35
113.22
101.39
88.23
72.47
52.87
29.06
2.05
-25.72
-50.83
-69.58
-78.62
-75.47
-58.90
-29.26
11.19
58.26
106.24
149.00
181.38
200.55
206.57
202.01
190.75
176.47
161.42
145.99
129.11
109.04
84.09
53.09
15.64
-27.68
-75.00
-122.87
-166.56
-201.16
-223.14
-231.73
-229.33
-220.56
-210.42
-202.52
-198.07
-196.30
-195.49
-194.18
-191.64
-187.70
-182.19
-174.71
-164.83
-152.61
-139.04
-125.82
-114.85
-107.43
-103.89
-103.66
-105.80
-109.36
-113.55
-117.44
-119.62
-118.11
-110.90
-96.65
-75.40
-48.78
-19.55
9.32
35.48
57.58
75.27
88.74
98.36
104.48
107.45
107.77
106.15
103.40
100.27
97.21
94.41
91.85
89.50
87.42
85.80
84.79
84.33
84.05
83.38
81.71
78.59
73.90
67.80
60.65
52.78
44.39
35.57
26.33
16.68
6.68
-3.58
-14.03
-24.58
-35.06
-45.22
-54.84
-63.89
-72.58
-81.30
-90.24
-98.99
-106.33
-110.42
-109.37
-101.94
-88.11
-69.07
-46.85
-23.75
-1.77
17.63
33.57
45.58
53.55
57.70
58.62
57.24
54.73
52.28
50.83
50.91
52.52
55.24
58.39
61.39
63.93
66.09
68.25
70.80
73.91
77.40
80.77
83.38
84.74
84.63
83.16
80.61
77.30
73.39
68.88
63.60
57.38
50.18
42.11
33.50
24.75
16.24
8.18
0.59
-6.71
-14.03
-21.75
-30.22
-39.57
-49.55
-59.30
-67.40
-72.13
-71.95
-66.02
-54.59
-38.97
-21.13
-3.19
13.13
26.72
37.11
44.20
48.17
49.27
47.87
44.53
39.94
34.92
30.14
26.07
22.87
20.48
18.81
17.89
17.86
18.86
20.87
23.57
26.38
28.66
29.91
29.96
28.91
27.04
24.59
21.72
18.47
14.77
10.55
5.73
0.33
-5.55
-11.66
-17.66
-23.18
-28.01
-32.20
-36.09
-40.19
-45.02
-50.89
-57.66
-64.66
-70.69
-74.29
-74.07
-69.14
-59.41
-45.72
-29.61
-12.93
2.66
16.00
26.48
33.98
38.60
40.50
39.90
37.12
32.71
27.40
21.98
17.12
13.28
10.59
9.02
8.47
8.80
9.91
11.61
13.60
15.51
17.00
17.83
17.93
17.28
15.96
13.96
11.25
7.83
3.74
-0.84
-5.66
-10.42
-14.86
-18.85
-22.43
-25.80
-29.39
-33.71
-39.14
-45.69
-52.81
-59.34
-63.74
-64.52
-60.69
-52.17
-39.80
-25.15
-10.07
3.80
15.29
23.88
29.51
32.44
33.04
31.73
28.96
25.21
20.97
16.66
12.62
9.11
6.28
4.23
3.03
2.67
3.05
4.00
5.32
6.79
8.24
9.44
10.12
9.98
8.79
6.45
3.09
-0.98
-5.39
-9.83
-14.08
-18.13
-22.07
-26.16
-30.73
-36.09
-42.47
-49.77
-57.45
-64.42
-69.20
-70.27
-66.56
-57.86
-44.99
-29.57
-13.57
1.30
13.89
23.73
30.83
35.42
37.79
38.18
36.96
34.63
31.70
28.62
25.57
22.50
19.22
15.64
11.87
8.28
5.32
3.31
2.27
1.87
1.47
0.36
-2.03
-5.90
-11.05
-16.93
-22.88
-28.36
-33.19
-37.63
-42.31
-47.95
-55.06
-63.58
-72.82
-81.58
-88.42
-91.98
-91.33
-86.21
-77.28
-66.10
-54.79
-45.41
-39.26
-36.39
-35.67
-35.45
-34.30
-31.70
-28.06
-24.35
-21.34
-19.22
-17.56
-15.72
-13.28
-10.28
-7.13
-4.23
-1.77
0.34
2.40
4.69
7.29
10.11
12.84
15.16
16.79
17.54
17.31
16.07
13.82
10.54
6.21
0.72
-6.04
-14.03
-22.84
-31.52
-38.63
-42.59
-42.18
-37.01
-27.74
-15.86
-3.20
8.62
18.62
26.46
32.25
36.19
38.42
38.95
37.81
35.20
31.57
27.56
23.82
20.87
18.96
18.05
17.95
18.44
19.43
20.91
22.96
25.61
28.66
31.74
34.32
35.92
36.21
35.13
32.87
29.79
26.27
22.64
19.09
15.57
11.87
7.62
2.39
-4.14
-12.04
-20.97
-30.13
-38.29
-44.07
-46.24
-44.13
-37.84
-28.23
-16.72
-4.91
5.80
14.47
20.64
24.25
25.46
24.54
21.80
17.67
12.71
7.61
3.16
0.02
-1.36
-0.86
1.27
4.52
8.27
11.92
14.99
17.17
18.28
18.27
17.15
15.00
11.90
8.01
3.49
-1.45
-6.56
-11.60
-16.28
-20.35
-23.57
-25.77
-26.91
-27.13
-26.78
-26.35
-26.29
-26.81
-27.65
-27.99
-26.62
-22.29
-14.17
-2.22
12.77
29.34
45.79
60.55
72.46
80.81
85.23
85.66
82.31
75.80
67.12
57.55
48.41
40.74
35.00
31.02
27.98
24.79
20.43
14.29
6.35
-2.89
-12.57
-21.83
-30.07
-37.01
-42.71
-47.34
-51.04
-53.80
-55.50
-56.04
-55.46
-54.01
-52.07
-50.11
-48.53
-47.69
-47.75
-48.70
-50.23
-51.60
-51.70
-49.17
-42.78
-31.81
-16.29
2.90
24.25
45.88
65.88
82.52
94.36
100.28
99.61
92.16
78.39
59.43
36.95
13.02
-10.27
-31.17
-48.52
-61.88
-71.45
-77.88
-82.03
-84.74
-86.62
-87.98
-88.75
-88.65
-87.28
-84.39
-80.06
-74.72
-69.08
-63.89
-59.69
-56.61
-54.37
-52.46
-50.35
-47.74
-44.74
-41.77
-39.49
-38.45
-38.81
-40.14
-41.36
-40.96
-37.43
-29.77
-17.80
-2.29
15.24
33.00
49.26
62.77
72.83
79.24
82.19
82.19
79.87
75.95
71.11
65.81
60.32
54.74
49.12
43.61
38.50
34.09
30.63
28.18
26.58
25.49
24.54
23.42
21.88
19.75
16.83
12.95
8.01
2.12
-4.40
-11.01
-17.14
-22.39
-26.64
-30.10
-33.14
-36.20
-39.63
-43.63
-48.20
-53.15
-57.97
-61.83
-63.68
-62.46
-57.48
-48.65
-36.65
-22.79
-8.63
4.40
15.32
23.61
29.24
32.37
33.30
32.30
29.68
25.77
20.94
15.65
10.30
5.25
0.69
-3.34
-6.97
-10.35
-13.58
-16.64
-19.30
-21.32
-22.53
-22.84
-22.35
-21.18
-19.44
-17.22
-14.60
-11.75
-8.91
-6.40
-4.55
-3.66
-3.92
-5.42
-8.05
-11.43
-14.75
-16.96
-16.94
-13.83
-7.40
1.84
12.84
24.27
34.92
43.91
50.75
55.21
57.21
56.76
54.05
49.48
43.70
37.53
31.75
26.86
23.00
19.93
17.26
14.68
12.22
10.26
9.39
10.08
12.43
15.94
19.65
22.43
23.36
21.97
18.38
13.15
6.97
0.49
-5.89
-12.05
-18.05
-24.11
-30.42
-37.10
-43.99
-50.60
-56.06
-59.30
-59.31
-55.49
-47.89
-37.29
-24.99
-12.53
-1.26
7.85
14.28
17.87
18.63
16.68
12.25
5.82
-1.81
-9.56
-16.26
-20.92
-22.98
-22.41
-19.56
-15.04
-9.39
-3.08
3.53
9.93
15.43
19.21
20.58
19.33
15.96
11.54
7.40
4.59
3.54
3.96
5.07
5.99
6.08
5.03
2.88
-0.15
-3.79
-7.73
-11.62
-14.95
-17.06
-17.16
-14.50
-8.69
0.06
10.73
21.70
31.10
37.50
40.26
39.80
37.24
34.00
31.18
29.27
27.98
26.37
23.27
17.73
9.55
-0.57
-11.04
-19.98
-25.90
-28.31
-27.87
-26.04
-24.39
-23.91
-24.73
-26.26
-27.64
-28.13
-27.38
-25.44
-22.64
-19.73
-17.83
-18.38
-22.59
-30.88
-42.17
-53.91
-62.78
-65.82
-61.66
-51.00
-36.26
-20.51
-6.35
4.85
12.90
18.29
21.61
23.19
23.24
21.99
19.92
17.57
15.30
12.99
10.22
6.56
2.09
-2.47
-5.99
-7.44
-6.44
-3.38
0.76
4.98
8.58
11.27
12.95
13.39
12.14
8.73
3.02
-4.55
-13.04
-21.42
-28.96
-35.47
-41.07
-45.82
-49.26
-50.46
-48.29
-42.09
-32.05
-19.31
-5.61
7.32
18.31
26.91
33.25
37.65
40.29
41.24
40.48
38.21
34.94
31.42
28.43
26.55
26.03
26.70
28.20
30.08
32.02
33.84
35.52
37.08
38.53
39.78
40.64
40.93
40.57
39.68
38.54
37.52
36.84
36.45
36.00
34.92
32.65
28.76
23.20
16.31
8.93
2.19
-2.59
-4.28
-2.28
3.34
11.77
21.72
31.74
40.61
47.49
51.97
53.92
53.40
50.59
45.84
39.66
32.72
25.75
19.39
14.09
10.07
7.33
5.68
4.89
4.70
4.85
5.15
5.39
5.42
4.95
3.70
1.39
-2.16
-6.85
-12.38
-18.27
-24.10
-29.67
-35.06
-40.56
-46.50
-53.10
-60.42
-68.38
-76.73
-85.03
-92.47
-97.94
-100.13
-97.90
-90.74
-79.01
-63.94
-47.34
-31.05
-16.54
-4.69
4.17
10.07
13.18
13.75
12.11
8.81
4.56
0.13
-3.82
-6.91
-9.11
-10.59
-11.54
-11.95
-11.56
-10.07
-7.27
-3.30
1.38
6.11
10.24
13.33
15.28
16.35
16.94
17.50
18.32
19.31
20.02
19.71
17.46
12.49
4.39
-6.74
-20.02
-33.95
-46.56
-55.88
-60.36
-59.34
-53.23
-43.38
-31.66
-19.92
-9.57
-1.39
4.48
8.30
10.57
11.76
12.21
12.14
11.64
10.79
9.71
8.65
7.93
7.80
8.48
10.04
12.48
15.80
19.98
24.85
30.06
34.99
38.96
41.46
42.26
41.48
39.31
35.82
30.83
24.11
15.67
6.04
-3.75
-12.51
-19.34
-24.01
-27.00
-29.20
-31.50
-34.42
-37.91
-41.41
-44.03
-44.89
-43.40
-39.45
-33.40
-25.93
-17.77
-9.42
-1.23
6.56
13.56
19.18
22.74
23.80
22.39
19.11
14.88
10.63
6.96
4.08
1.94
0.47
-0.22
0.22
2.13
5.68
10.59
16.17
21.46
25.58
27.98
28.58
27.70
25.87
23.51
20.82
17.79
14.19
9.83
4.57
-1.54
-8.31
-15.41
-22.47
-29.11
-35.10
-40.36
-45.03
-49.44
-53.97
-58.86
-64.03
-68.87
-72.26
-72.82
-69.32
-61.19
-48.74
-33.18
-16.21
0.36
15.12
27.17
36.16
42.10
45.19
45.82
44.48
41.84
38.58
35.38
32.63
30.45
28.70
27.15
25.65
24.25
23.13
22.54
22.62
23.27
24.25
25.22
25.88
26.04
25.64
24.68
23.24
21.43
19.38
17.18
14.85
12.34
9.54
6.34
2.69
-1.34
-5.59
-9.85
-13.91
-17.66
-21.13
-24.52
-28.13
-32.32
-37.44
-43.57
-50.41
-57.05
-62.16
-64.21
-62.02
-55.14
-44.10
-30.23
-15.27
-0.84
11.92
22.38
30.36
35.89
39.10
40.15
39.32
37.08
34.01
30.76
27.89
25.81
24.71
24.60
25.32
26.64
28.32
30.17
32.06
33.90
35.55
36.90
37.72
37.86
37.18
35.63
33.25
30.21
26.67
22.84
18.86
14.75
10.45
5.78
0.59
-5.20
-11.50
-18.06
-24.49
-30.42
-35.66
-40.27
-44.54
-48.89
-53.70
-59.13
-64.95
-70.49
-74.68
-76.25
-74.05
-67.40
-56.31
-41.60
-24.68
-7.19
9.38
23.94
35.93
45.17
51.74
55.81
57.63
57.55
56.06
53.77
51.30
49.12
47.43
46.14
44.99
43.71
42.22
40.73
39.60
39.19
39.58
40.54
41.49
41.77
40.87
38.57
35.01
30.59
25.86
21.25
16.98
13.01
9.04
4.69
-0.32
-6.00
-12.08
-18.05
-23.41
-27.88
-31.46
-34.48
-37.44
-40.85
-45.01
-49.84
-54.79
-58.86
-60.78
-59.41
-54.08
-44.85
-32.58
-18.64
-4.54
8.40
19.29
27.66
33.36
36.48
37.23
36.01
33.27
29.60
25.56
21.67
18.31
15.71
13.96
12.99
12.65
12.78
13.30
14.19
15.43
16.92
18.32
19.16
18.93
17.34
14.48
10.76
6.82
3.20
0.12
-2.59
-5.32
-8.52
-12.41
-16.90
-21.68
-26.35
-30.58
-34.24
-37.41
-40.27
-43.13
-46.35
-50.34
-55.42
-61.69
-68.78
-75.73
-81.12
-83.35
-81.15
-74.00
-62.36
-47.48
-31.04
-14.66
0.41
13.47
24.22
32.54
38.35
41.67
42.62
41.57
39.13
36.02
32.86
30.04
27.69
25.73
24.13
22.93
22.23
22.09
22.47
23.11
23.60
23.52
22.56
20.65
17.94
14.75
11.46
8.32
5.34
2.26
-1.33
-5.85
-11.50
-18.08
-24.99
-31.46
-36.72
-40.35
-42.36
-43.23
-43.71
-44.60
-46.56
-49.91
-54.49
-59.64
-64.17
-66.62
-65.65
-60.45
-51.07
-38.51
-24.43
-10.63
1.41
10.91
17.77
22.33
25.13
26.59
27.04
26.68
25.70
24.34
22.86
21.54
20.65
20.37
20.87
22.24
24.56
27.82
31.92
36.56
41.21
45.14
47.52
47.72
45.46
41.01
35.01
28.31
21.65
15.46
9.83
4.65
-0.22
-4.83
-9.05
-12.74
-15.78
-18.19
-20.17
-22.07
-24.40
-27.76
-32.72
-39.65
-48.51
-58.62
-68.60
-76.61
-80.77
-79.81
-73.46
-62.66
-49.19
-35.15
-22.31
-11.75
-3.79
1.78
5.39
7.45
8.30
8.27
7.73
7.13
6.83
7.02
7.64
8.41
9.02
9.24
9.11
8.81
8.60
8.63
8.80
8.84
8.38
7.19
5.28
2.94
0.59
-1.31
-2.48
-2.92
-2.92
-2.97
-3.60
-5.22
-7.95
-11.66
-15.99
-20.59
-25.20
-29.76
-34.37
-39.17
-44.29
-49.69
-55.09
-59.83
-62.83
-62.75
-58.32
-48.82
-34.46
-16.43
3.38
22.89
40.26
54.19
63.84
68.82
69.05
64.91
57.33
47.74
37.88
29.32
23.06
19.42
18.10
18.56
20.33
23.18
27.09
31.96
37.47
42.88
47.23
49.57
49.34
46.63
42.12
36.86
31.85
27.77
24.73
22.48
20.51
18.36
15.74
12.56
8.83
4.60
-0.05
-5.14
-10.65
-16.65
-23.27
-30.66
-38.82
-47.49
-55.86
-62.60
-66.03
-64.55
-57.18
-43.99
-26.16
-5.70
15.11
34.23
50.25
62.41
70.49
74.68
75.48
73.74
70.53
66.99
64.03
62.11
61.10
60.53
59.82
58.59
56.75
54.35
51.45
47.91
43.47
37.87
31.13
23.63
16.03
8.93
2.69
-2.77
-7.84
-12.97
-18.40
-24.05
-29.57
-34.66
-39.19
-43.36
-47.54
-52.09
-57.16
-62.69
-68.48
-74.45
-80.72
-87.43
-94.52
-101.25
-106.27
-107.86
-104.66
-96.29
-83.73
-69.00
-54.49
-42.14
-32.90
-26.68
-22.84
-20.62
-19.50
-19.16
-19.35
-19.61
-19.45
-18.46
-16.68
-14.61
-13.04
-12.72
-13.93
-16.43
-19.42
-22.01
-23.49
-23.69
-23.03
-22.28
-22.27
-23.54
-26.10
-29.51
-33.10
-36.20
-38.45
-39.82
-40.54
-41.03
-41.74
-43.05
-45.14
-47.85
-50.52
-52.00
-50.95
-46.16
-37.08
-24.01
-8.10
9.05
25.80
40.94
53.82
64.25
72.29
78.08
81.76
83.54
83.70
82.63
80.72
78.19
75.04
71.11
66.35
61.00
55.68
51.19
48.21
46.94
47.02
47.73
48.34
48.50
48.29
48.08
48.18
48.55
48.71
47.81
44.99
39.56
31.32
20.60
8.39
-3.77
-13.99
-20.43
-21.79
-17.74
-9.12
2.27
14.08
24.15
31.09
34.54
35.19
34.25
32.98
32.17
31.95
31.93
31.49
30.13
27.65
24.20
20.06
15.56
10.97
6.50
2.35
-1.34
-4.55
-7.45
-10.39
-13.80
-17.97
-22.96
-28.56
-34.44
-40.31
-46.08
-51.97
-58.37
-65.65
-73.89
-82.66
-90.92
-97.14
-99.73
-97.50
-90.13
-78.37
-63.79
-48.40
-34.02
-21.81
-12.03
-4.22
2.48
8.85
15.32
21.90
28.33
34.41
40.24
46.19
52.74
60.18
68.36
76.69
84.37
90.69
95.29
98.18
99.64
100.02
99.52
98.13
95.76
92.30
87.78
82.41
76.55
70.40
63.96
57.02
49.35
41.05
32.78
25.70
21.13
19.98
22.31
27.30
33.53
39.46
43.91
46.28
46.39
44.36
40.35
34.53
27.13
18.54
9.27
-0.07
-8.95
-17.01
-24.08
-30.14
-35.19
-39.18
-41.98
-43.51
-43.72
-42.76
-40.94
-38.65
-36.23
-33.81
-31.44
-29.06
-26.78
-24.94
-24.09
-24.90
-27.82
-32.87
-39.47
-46.50
-52.44
-55.74
-55.13
-49.99
-40.52
-27.66
-12.92
2.05
15.78
27.22
35.83
41.43
44.08
44.01
41.61
37.40
31.97
25.92
19.73
13.66
7.79
2.10
-3.41
-8.62
-13.23
-16.89
-19.34
-20.43
-20.32
-19.33
-17.89
-16.42
-15.18
-14.23
-13.46
-12.69
-11.76
-10.71
-9.81
-9.56
-10.58
-13.39
-18.23
-24.80
-32.21
-39.10
-43.92
-45.32
-42.61
-35.85
-25.89
-14.06
-1.86
9.44
18.90
25.99
30.46
32.27
31.53
28.58
23.96
18.38
12.53
6.96
1.98
-2.29
-5.82
-8.53
-10.23
-10.73
-10.00
-8.33
-6.31
-4.73
-4.28
-5.31
-7.78
-11.23
-15.06
-18.74
-21.98
-24.87
-27.79
-31.27
-35.77
-41.40
-47.73
-53.72
-57.90
-58.71
-55.00
-46.36
-33.30
-17.07
0.59
17.92
33.36
45.81
54.61
59.62
61.09
59.61
55.94
50.86
45.11
39.29
33.94
29.47
26.16
24.03
22.89
22.30
21.79
20.99
19.76
18.18
16.39
14.44
12.18
9.23
5.15
-0.41
-7.54
-16.05
-25.45
-35.09
-44.33
-52.70
-60.01
-66.43
-72.42
-78.57
-85.33
-92.73
-100.13
-106.27
-109.49
-108.21
-101.45
-89.14
-72.16
-52.13
-30.94
-10.39
8.08
23.53
35.46
43.78
48.79
51.08
51.41
50.58
49.22
47.76
46.45
45.42
44.76
44.59
45.00
46.00
47.50
49.34
51.27
53.11
54.63
55.68
56.07
55.65
54.29
51.94
48.63
44.46
39.58
34.14
28.28
22.11
15.73
9.24
2.73
-3.68
-9.90
-15.79
-21.21
-26.05
-30.19
-33.67
-36.63
-39.46
-42.73
-47.00
-52.67
-59.56
-66.73
-72.48
-74.78
-71.83
-62.75
-47.85
-28.60
-7.16
14.22
33.71
50.14
62.99
72.25
78.20
81.27
82.01
80.97
78.74
75.82
72.62
69.43
66.43
63.70
61.23
58.99
56.92
55.02
53.24
51.53
49.73
47.58
44.85
41.33
36.99
31.96
26.54
20.98
15.49
10.08
4.65
-0.93
-6.77
-12.84
-19.08
-25.43
-31.93
-38.69
-45.82
-53.26
-60.73
-67.79
-73.96
-78.98
-82.92
-86.23
-89.61
-93.83
-99.42
-106.33
-113.81
-120.33
-123.90
-122.59
-115.15
-101.39
-82.40
-60.12
-36.86
-14.70
4.90
21.13
33.72
42.72
48.36
50.99
51.18
49.63
47.18
44.60
42.43
40.92
40.01
39.46
39.05
38.75
38.74
39.31
40.67
42.77
45.20
47.29
48.29
47.67
45.33
41.65
37.28
32.96
29.11
25.67
22.18
17.97
12.51
5.73
-2.00
-9.98
-17.42
-23.79
-28.94
-33.11
-36.96
-41.35
-47.27
-55.56
-66.45
-79.31
-92.37
-103.04
-108.54
-106.71
-96.77
-79.54
-57.20
-32.63
-8.71
12.36
29.22
41.35
48.88
52.34
52.49
50.17
46.21
41.38
36.38
31.88
28.49
26.73
26.95
29.17
33.10
38.19
43.72
49.01
53.52
56.86
58.83
59.38
58.62
56.79
54.23
51.33
48.37
45.46
42.53
39.38
35.85
31.86
27.47
22.78
17.82
12.41
6.19
-1.22
-10.01
-19.88
-29.84
-38.29
-43.43
-43.74
-38.61
-28.52
-14.94
0.15
14.80
27.50
37.32
43.74
46.52
45.54
40.83
32.68
21.66
8.64
-5.37
-19.33
-32.38
-43.84
-53.36
-60.78
-66.13
-69.45
-70.79
-70.22
-67.90
-64.23
-59.73
-55.02
-50.54
-46.45
-42.65
-38.94
-35.19
-31.53
-28.38
-26.28
-25.81
-27.38
-31.19
-37.05
-44.39
-52.06
-58.51
-61.97
-60.89
-54.51
-43.09
-27.89
-10.82
6.17
21.52
34.36
44.32
51.41
55.70
57.28
56.38
53.42
48.99
43.77
38.33
33.08
28.31
24.23
21.07
19.06
18.27
18.47
19.16
19.57
19.00
16.95
13.25
8.05
1.74
-5.22
-12.41
-19.51
-26.46
-33.50
-41.09
-49.74
-59.65
-70.33
-80.56
-88.51
-92.31
-90.72
-83.56
-71.76
-57.06
-41.37
-26.27
-12.77
-1.30
8.11
15.58
21.29
25.45
28.37
30.43
32.11
33.85
36.01
38.81
42.29
46.38
50.83
55.32
59.43
62.62
64.33
64.00
61.28
56.09
48.74
39.85
30.20
20.53
11.42
3.21
-4.05
-10.38
-15.86
-20.34
-23.41
-24.40
-22.49
-17.04
-7.86
4.61
19.39
35.19
50.66
64.66
76.31
84.94
90.02
91.16
88.26
81.69
72.35
61.62
51.15
42.45
36.58
33.81
33.58
34.48
34.70
32.59
27.27
18.98
9.10
-0.44
-7.89
-12.37
-14.21
-14.73
-15.69
-18.64
-24.40
-32.91
-43.25
-53.86
-62.79
-68.08
-68.27
-62.71
-51.91
-37.37
-21.33
-6.03
6.67
15.65
20.45
21.09
17.82
11.07
1.47
-9.99
-22.06
-33.30
-42.31
-48.10
-50.30
-49.28
-46.08
-42.16
-38.95
-37.57
-38.51
-41.56
-45.94
-50.55
-54.33
-56.55
-56.91
-55.52
-52.83
-49.37
-45.70
-42.28
-39.30
-36.57
-33.28
-28.13
-19.56
-6.29
12.16
35.16
61.09
87.74
112.90
134.84
152.45
165.24
173.24
176.87
176.87
174.16
169.70
164.18
157.90
150.80
142.57
132.90
121.65
108.79
94.50
79.02
62.68
45.84
28.80
11.80
-5.14
-22.16
-39.52
-57.38
-75.54
-93.22
-109.08
-121.41
-128.54
-129.38
-123.78
-112.63
-97.61
-80.84
-64.42
-50.21
-39.70
-33.94
-33.42
-38.00
-46.79
-58.28
-70.72
-82.51
-92.56
-100.34
-105.80
-109.04
-110.11
-109.06
-106.23
-102.49
-99.28
-98.23
-100.54
-106.31
-114.36
-122.55
-128.71
-131.47
-130.87
-128.09
-124.73
-121.87
-119.52
-116.59
-111.47
-102.76
-89.83
-72.97
-53.05
-31.18
-8.31
14.83
37.61
59.20
78.46
94.05
104.76
109.95
109.75
105.11
97.47
88.33
78.85
69.65
60.85
52.37
44.16
36.39
29.44
23.76
19.61
16.97
15.48
14.58
13.65
12.08
9.28
4.78
-1.70
-10.01
-19.46
-28.76
-36.34
-40.76
-41.12
-37.27
-29.73
-19.39
-7.30
5.41
17.44
27.26
33.26
34.19
29.64
20.38
8.30
-4.18
-14.74
-21.83
-24.90
-24.29
-20.85
-15.51
-9.10
-2.31
4.24
9.93
14.21
16.64
16.96
15.09
11.06
4.87
-3.49
-13.94
-26.07
-38.92
-50.91
-60.02
-64.23
-62.14
-53.43
-39.01
-20.76
-1.06
17.74
33.85
46.18
54.36
58.58
59.33
57.15
52.44
45.45
36.30
25.28
13.06
0.69
-10.55
-19.63
-26.06
-30.03
-32.12
-32.97
-32.84
-31.70
-29.44
-26.25
-22.85
-20.41
-20.15
-22.91
-28.82
-37.16
-46.42
-54.56
-59.37
-58.93
-52.04
-38.55
-19.48
3.29
27.46
50.91
72.07
90.00
104.32
114.88
121.63
124.47
123.45
118.88
111.49
102.36
92.69
83.57
75.70
69.27
64.07
59.73
55.90
52.43
49.28
46.44
43.71
40.61
36.41
30.31
21.61
9.93
-4.71
-21.79
-40.27
-58.54
-74.61
-86.32
-91.83
-90.11
-81.30
-66.77
-48.77
-29.89
-12.41
2.10
12.90
19.91
23.41
23.82
21.62
17.38
11.76
5.44
-0.92
-6.88
-12.18
-16.74
-20.47
-23.22
-24.79
-25.08
-24.28
-22.89
-21.63
-21.12
-21.64
-23.04
-24.98
-27.16
-29.65
-32.82
-37.11
-42.63
-48.85
-54.49
-57.81
-57.10
-51.17
-39.79
-23.76
-4.72
15.17
33.79
49.43
61.05
68.33
71.45
70.85
67.04
60.55
52.00
42.19
32.07
22.61
14.56
8.25
3.59
0.20
-2.32
-4.25
-5.63
-6.47
-6.83
-6.94
-7.16
-7.92
-9.59
-12.49
-16.86
-22.90
-30.65
-39.80
-49.57
-58.68
-65.53
-68.52
-66.53
-59.19
-46.99
-31.14
-13.33
4.69
21.33
35.39
46.18
53.47
57.47
58.65
57.59
54.88
51.03
46.47
41.64
37.01
33.07
30.25
28.80
28.64
29.34
30.12
30.08
28.38
24.51
18.46
10.73
2.14
-6.45
-14.46
-21.76
-28.58
-35.39
-42.63
-50.54
-59.02
-67.48
-74.78
-79.34
-79.42
-73.55
-61.17
-42.89
-20.48
3.53
26.46
46.09
60.94
70.39
74.51
73.97
69.83
63.44
56.19
49.26
43.42
38.95
35.80
33.77
32.79
32.83
33.91
35.82
38.13
40.21
41.48
41.53
40.32
38.12
35.33
32.26
29.00
25.36
21.08
15.94
9.94
3.31
-3.63
-10.58
-17.36
-23.96
-30.48
-37.07
-43.92
-51.32
-59.48
-68.34
-77.33
-85.16
-89.99
-89.91
-83.64
-70.98
-53.01
-31.79
-9.74
10.94
28.64
42.47
52.14
57.74
59.67
58.59
55.37
51.01
46.46
42.48
39.49
37.62
36.79
36.85
37.68
39.20
41.32
43.89
46.67
49.31
51.47
52.86
53.31
52.76
51.21
48.66
45.11
40.57
35.14
29.05
22.65
16.43
10.79
6.01
2.09
-1.25
-4.39
-7.72
-11.41
-15.38
-19.32
-22.86
-25.68
-27.72
-29.14
-30.36
-32.01
-34.73
-39.05
-45.08
-52.26
-59.33
-64.50
-65.96
-62.44
-53.66
-40.50
-24.66
-8.14
7.31
20.59
31.23
39.21
44.75
48.05
49.34
48.93
47.31
45.14
43.19
42.11
42.30
43.78
46.25
49.10
51.67
53.43
54.11
53.79
52.81
51.70
50.82
50.27
49.83
49.04
47.51
45.16
42.32
39.66
37.90
37.44
38.20
39.65
40.91
41.07
39.36
35.29
28.61
19.41
8.00
-5.04
-18.98
-33.09
-46.75
-59.67
-71.81
-83.35
-94.45
-105.07
-114.74
-122.50
-127.06
-127.05
-121.42
-109.91
-93.19
-72.80
-50.87
-29.60
-10.78
4.52
16.05
24.24
29.91
33.96
37.08
39.57
41.36
42.19
41.84
40.26
37.79
34.98
32.52
30.99
30.77
31.92
34.22
37.24
40.44
43.24
45.09
45.60
44.59
42.12
38.59
34.52
30.49
26.85
23.67
20.70
17.49
13.64
9.01
3.77
-1.65
-6.77
-11.29
-15.24
-18.94
-22.97
-27.90
-34.17
-41.87
-50.58
-59.31
-66.54
-70.61
-70.07
-64.24
-53.38
-38.70
-21.96
-5.04
10.52
23.66
33.77
40.53
43.83
43.74
40.59
35.01
27.89
20.24
12.96
6.61
1.40
-2.82
-6.33
-9.39
-12.06
-14.20
-15.60
-16.07
-15.64
-14.55
-13.20
-11.95
-11.09
-10.71
-10.80
-11.26
-11.96
-12.76
-13.53
-14.25
-15.08
-16.40
-18.83
-23.00
-29.24
-37.36
-46.61
-55.83
-63.91
-70.20
-74.62
-77.59
-79.63
-80.96
-81.25
-79.73
-75.55
-68.23
-58.00
-45.88
-33.43
-22.40
-14.35
-10.39
-11.11
-16.68
-26.91
-41.28
-58.96
-78.63
-98.53
-116.49
-130.32
-138.17
-138.89
-132.24
-118.85
-100.06
-77.77
-54.12
-31.33
-11.33
4.54
15.81
22.91
26.95
29.20
30.72
32.06
33.30
34.24
34.63
34.26
32.90
30.28
26.08
20.08
12.32
3.15
-6.69
-16.20
-24.18
-29.38
-30.68
-27.31
-19.10
-6.61
8.88
25.69
42.12
56.76
68.72
77.53
83.07
85.37
84.60
81.15
75.64
68.85
61.58
54.47
47.85
41.74
36.00
30.50
25.27
20.54
16.58
13.56
11.35
9.45
7.17
3.89
-0.67
-6.28
-12.33
-18.09
-23.07
-27.21
-30.91
-34.73
-39.17
-44.38
-50.14
-55.82
-60.47
-62.92
-61.93
-56.45
-46.00
-31.17
-13.65
3.99
19.08
29.62
34.81
35.09
31.58
25.44
17.48
8.11
-2.40
-13.46
-24.14
-33.28
-39.81
-43.20
-43.57
-41.58
-38.18
-34.31
-30.61
-27.40
-24.74
-22.67
-21.36
-21.15
-22.38
-25.15
-29.29
-34.40
-40.20
-46.73
-54.28
-62.98
-72.33
-80.88
-86.43
-86.79
-80.54
-67.76
-49.98
-29.78
-9.87
7.61
21.50
31.66
38.60
43.11
45.93
47.67
48.74
49.51
50.39
51.75
53.92
57.01
60.86
65.00
68.68
71.07
71.45
69.40
65.01
58.80
51.60
44.25
37.34
31.07
25.30
19.72
13.96
7.70
0.68
-7.33
-16.27
-25.58
-34.05
-39.97
-41.63
-37.92
-28.80
-15.39
0.49
16.87
32.18
45.40
56.07
63.88
68.53
69.62
66.79
59.90
49.17
35.23
19.00
1.56
-16.10
-33.22
-49.36
-64.34
-78.08
-90.49
-101.38
-110.60
-118.12
-124.19
-129.32
-134.21
-139.63
-146.24
-154.45
-164.27
-175.05
-185.38
-193.09
-195.45
-189.70
-173.73
-146.69
-109.35
-64.12
-14.65
34.78
80.08
118.03
146.88
166.45
177.94
183.33
184.79
184.20
182.90
181.71
181.02
180.88
181.04
181.08
180.55
179.19
177.14
174.82
172.64
170.65
168.29
164.54
158.38
149.31
137.58
124.16
110.25
96.89
84.62
73.46
63.03
52.66
41.36
27.93
11.19
-9.31
-32.89
-57.51
-80.36
-98.91
-111.92
-119.76
-123.87
-125.70
-125.75
-123.32
-117.14
-106.30
-90.97
-72.42
-52.47
-32.74
-14.21
2.75
18.04
31.37
42.11
49.47
52.83
52.11
47.87
41.23
33.46
25.66
18.35
11.51
4.67
-2.66
-10.75
-19.56
-28.80
-38.18
-47.53
-56.81
-66.00
-74.93
-83.36
-91.02
-97.77
-103.63
-108.79
-113.52
-118.17
-123.20
-129.06
-136.02
-143.76
-151.08
-155.96
-155.99
-149.20
-134.91
-114.04
-88.90
-62.44
-37.30
-15.20
3.18
17.96
29.45
37.85
43.12
45.19
44.28
41.08
36.64
32.15
28.56
26.30
25.29
25.11
25.27
25.53
25.97
26.89
28.61
31.19
34.30
37.34
39.62
40.62
40.19
38.57
36.24
33.71
31.25
28.86
26.25
23.05
18.87
13.48
6.77
-1.16
-9.98
-18.97
-26.98
-32.52
-34.05
-30.50
-21.71
-8.56
7.16
23.30
38.00
50.09
59.21
65.56
69.62
71.86
72.60
72.16
70.91
69.27
67.67
66.35
65.36
64.61
63.98
63.46
63.16
63.25
63.85
64.86
65.97
66.70
66.52
65.06
62.20
58.16
53.42
48.59
44.09
40.02
36.15
32.01
27.17
21.45
15.05
8.44
2.19
-3.28
-7.86
-11.75
-15.38
-19.37
-24.33
-30.69
-38.45
-46.98
-54.99
-60.73
-62.48
-59.13
-50.61
-37.98
-23.10
-7.98
5.70
17.02
25.75
32.12
36.57
39.47
41.11
41.72
41.58
40.97
40.16
39.34
38.58
37.88
37.27
36.83
36.69
36.99
37.79
39.03
40.51
41.94
43.00
43.41
43.02
41.81
39.99
37.89
35.83
34.02
32.41
30.73
28.66
25.96
22.67
18.96
15.14
11.37
7.70
4.02
0.20
-3.79
-7.87
-11.89
-15.69
-19.17
-22.33
-25.34
-28.54
-32.38
-37.29
-43.38
-50.21
-56.67
-61.21
-62.26
-58.80
-50.76
-39.05
-25.35
-11.57
0.64
10.20
16.73
20.39
21.70
21.34
19.88
17.79
15.35
12.75
10.15
7.72
5.69
4.25
3.53
3.49
3.97
4.73
5.61
6.48
7.31
8.06
8.62
8.76
8.23
6.90
4.88
2.59
0.71
0.02
1.24
4.87
11.09
19.71
30.22
41.87
53.84
65.27
75.44
83.95
90.76
96.32
101.50
107.37
114.90
124.68
136.83
151.12
167.28
185.15
204.63
225.34
246.20
265.38
280.61
289.98
292.63
289.13
281.13
270.67
259.35
247.88
236.14
223.72
210.37
196.26
181.84
167.44
152.89
137.42
119.96
99.57
75.98
49.64
21.75
-6.26
-33.24
-58.76
-83.31
-108.22
-135.29
-166.03
-200.95
-238.93
-277.47
-313.41
-344.20
-368.75
-387.42
-401.29
-411.03
-416.47
-416.85
-411.56
-400.67
-384.73
-364.26
-339.40
-310.42
-278.67
-247.21
-220.13
-200.56
-188.67
-180.93
-171.58
-155.52
-130.90
-100.05
-68.10
-40.24
-19.35
-5.24
4.32
11.83
18.60
24.57
29.03
31.66
32.96
33.97
35.58
37.96
40.60
42.72
43.97
44.69
45.77
48.20
52.47
58.37
64.96
70.86
74.61
75.10
71.83
65.16
56.22
46.56
37.59
30.10
24.03
18.66
13.13
6.92
0.15
-6.49
-12.13
-16.07
-18.11
-18.48
-17.76
-16.61
-15.65
-15.35
-15.91
-17.27
-19.08
-20.87
-22.20
-22.86
-22.98
-23.00
-23.47
-24.88
-27.49
-31.33
-36.17
-41.51
-46.61
-50.48
-52.07
-50.48
-45.38
-37.13
-26.76
-15.70
-5.35
3.26
9.64
13.79
15.98
16.50
15.60
13.51
10.51
7.02
3.55
0.54
-1.70
-3.10
-3.78
-3.91
-3.60
-2.94
-2.00
-0.93
0.00
0.51
0.39
-0.37
-1.54
-2.81
-3.97
-4.97
-6.05
-7.54
-9.75
-12.77
-16.42
-20.36
-24.23
-27.81
-31.08
-34.24
-37.58
-41.37
-45.68
-50.29
-54.60
-57.69
-58.54
-56.32
-50.68
-41.93
-31.00
-19.17
-7.69
2.49
10.89
17.38
22.05
25.04
26.49
26.64
25.80
24.37
22.72
21.07
19.51
18.02
16.59
15.39
14.69
14.79
15.87
17.90
20.56
23.39
25.86
27.47
27.85
26.83
24.45
20.98
16.78
12.25
7.64
3.03
-1.62
-6.36
-11.17
-15.96
-20.64
-25.23
-29.89
-34.88
-40.41
-46.48
-52.80
-58.68
-63.22
-65.43
-64.48
-59.95
-51.94
-41.12
-28.57
-15.55
-3.21
7.55
16.21
22.61
26.88
29.34
30.49
30.95
31.34
32.11
33.40
34.94
36.22
36.70
36.16
34.92
33.71
33.37
34.56
37.50
41.99
47.47
53.16
58.16
61.53
62.48
60.58
55.85
48.69
39.58
28.87
16.70
3.33
-10.71
-24.38
-36.42
-45.81
-52.17
-55.96
-58.22
-60.19
-62.81
-66.54
-71.33
-76.68
-81.75
-85.37
-86.32
-83.53
-76.47
-65.28
-50.85
-34.59
-18.03
-2.49
11.16
22.49
31.47
38.23
42.98
46.00
47.56
47.95
47.51
46.57
45.39
44.21
43.18
42.43
42.04
42.05
42.48
43.24
44.16
44.92
45.18
44.61
43.03
40.49
37.25
33.72
30.29
27.23
24.56
22.10
19.51
16.46
12.76
8.40
3.59
-1.41
-6.31
-10.97
-15.36
-19.63
-23.97
-28.62
-33.82
-39.71
-46.29
-53.19
-59.65
-64.53
-66.58
-64.77
-58.72
-48.83
-36.23
-22.43
-8.86
3.44
13.93
22.46
29.03
33.66
36.36
37.18
36.41
34.52
32.10
29.67
27.56
25.84
24.39
23.04
21.68
20.35
19.26
18.63
18.66
19.32
20.35
21.32
21.73
21.19
19.60
17.17
14.34
11.60
9.25
7.27
5.37
3.16
0.40
-2.87
-6.32
-9.51
-12.13
-14.03
-15.32
-16.20
-16.94
-17.92
-19.65
-22.68
-27.29
-33.18
-39.18
-43.50
-44.40
-40.90
-33.29
-23.00
-12.02
-2.05
6.02
12.16
16.84
20.51
23.33
25.16
25.75
25.02
23.20
20.68
17.96
15.44
13.32
11.67
10.39
9.44
8.86
8.79
9.37
10.60
12.23
13.79
14.76
14.78
13.79
12.04
9.92
7.69
5.41
2.90
-0.13
-3.85
-8.19
-12.82
-17.31
-21.28
-24.62
-27.57
-30.65
-34.50
-39.62
-46.11
-53.45
-60.56
-65.95
-68.18
-66.24
-59.88
-49.64
-36.73
-22.65
-8.82
3.69
14.23
22.55
28.65
32.68
34.88
35.58
35.18
34.08
32.66
31.14
29.64
28.19
26.84
25.72
25.04
25.01
25.72
27.10
28.85
30.56
31.77
32.15
31.53
29.93
27.62
24.98
22.33
19.81
17.28
14.35
10.63
5.88
0.23
-5.89
-11.90
-17.33
-21.97
-25.95
-29.71
-33.80
-38.69
-44.58
-51.21
-57.81
-63.18
-65.90
-64.80
-59.24
-49.42
-36.32
-21.48
-6.53
7.13
18.61
27.54
33.94
38.03
40.10
40.50
39.59
37.81
35.63
33.50
31.67
30.22
29.09
28.18
27.49
27.17
27.42
28.37
29.94
31.83
33.56
34.60
34.59
33.34
30.97
27.79
24.24
20.68
17.27
13.89
10.27
6.15
1.47
-3.51
-8.35
-12.64
-16.17
-19.08
-21.77
-24.79
-28.64
-33.65
-39.80
-46.65
-53.30
-58.47
-60.80
-59.23
-53.35
-43.61
-31.17
-17.58
-4.32
7.48
17.18
24.58
29.73
32.82
34.08
33.82
32.43
30.40
28.20
26.19
24.53
23.24
22.21
21.41
20.95
21.06
21.96
23.70
26.06
28.54
30.50
31.43
31.12
29.73
27.70
25.57
23.73
22.27
20.91
19.18
16.62
13.02
8.48
3.38
-1.79
-6.59
-10.82
-14.51
-17.96
-21.64
-26.03
-31.49
-38.03
-45.19
-51.96
-57.02
-58.99
-56.91
-50.57
-40.57
-28.20
-15.01
-2.45
8.48
17.31
24.01
28.77
31.81
33.34
33.51
32.59
30.91
28.87
26.83
25.01
23.48
22.22
21.22
20.51
20.19
20.33
20.90
21.76
22.67
23.33
23.51
23.06
21.97
20.30
18.20
15.80
13.17
10.35
7.32
4.10
0.76
-2.55
-5.68
-8.49
-10.95
-13.22
-15.64
-18.70
-22.90
-28.49
-35.29
-42.55
-49.07
-53.44
-54.44
-51.42
-44.49
-34.47
-22.69
-10.57
0.63
10.13
17.60
23.10
26.91
29.34
30.59
30.81
30.16
28.86
27.21
25.57
24.21
23.26
22.65
22.28
22.04
21.98
22.25
22.98
24.12
25.37
26.22
26.22
25.14
23.19
20.85
18.65
16.91
15.54
14.19
12.39
9.87
6.63
2.87
-1.15
-5.16
-8.97
-12.42
-15.44
-18.17
-20.95
-24.24
-28.35
-33.23
-38.33
-42.74
-45.53
-46.08
-44.34
-40.70
-35.81
-30.31
-24.63
-18.99
-13.52
-8.30
-3.43
0.98
4.88
8.15
10.72
12.53
13.54
13.83
13.56
13.00
12.47
12.31
12.71
13.73
15.28
17.08
18.77
20.04
20.62
20.44
19.60
18.28
16.68
14.89
12.90
10.66
8.11
5.31
2.39
-0.44
-3.03
-5.27
-7.23
-9.10
-11.20
-13.93
-17.59
-22.22
-27.40
-32.29
-35.72
-36.52
-33.96
-27.93
-19.01
-8.31
2.87
13.28
21.87
27.88
30.92
30.95
28.33
23.78
18.24
12.60
7.59
3.57
0.61
-1.38
-2.54
-2.95
-2.67
-1.78
-0.42
1.20
2.91
4.62
6.29
7.93
9.51
10.83
11.64
11.66
10.76
9.02
6.68
4.06
1.37
-1.30
-4.07
-7.13
-10.67
-14.83
-19.68
-25.20
-31.26
-37.42
-42.92
-46.72
-47.75
-45.31
-39.37
-30.70
-20.54
-10.21
-0.72
7.48
14.29
19.79
23.96
26.66
27.77
27.30
25.55
22.99
20.12
17.30
14.75
12.52
10.64
9.19
8.25
7.88
7.97
8.32
8.57
8.41
7.68
6.39
4.67
2.67
0.44
-2.13
-5.13
-8.59
-12.32
-16.03
-19.40
-22.33
-24.98
-27.83
-31.45
-36.34
-42.69
-50.20
-58.06
-65.03
-69.69
-70.83
-67.82
-60.83
-50.80
-39.22
-27.59
-17.11
-8.41
-1.60
3.53
7.28
9.89
11.57
12.42
12.60
12.29
11.67
10.94
10.32
10.09
10.49
11.63
13.42
15.56
17.67
19.44
20.83
21.98
23.09
24.22
25.16
25.56
25.03
23.40
20.75
17.36
13.59
9.70
5.84
1.95
-2.12
-6.66
-11.98
-18.31
-25.56
-33.21
-40.27
-45.46
-47.55
-45.77
-40.06
-31.16
-20.38
-9.25
0.93
9.36
15.77
20.38
23.53
25.55
26.63
26.81
26.14
24.75
22.90
20.89
19.00
17.36
15.99
14.76
13.60
12.51
11.63
11.14
11.14
11.53
11.98
12.06
11.34
9.60
6.90
3.49
-0.27
-4.07
-7.68
-11.07
-14.29
-17.60
-21.32
-25.81
-31.29
-37.71
-44.63
-51.24
-56.54
-59.52
-59.44
-55.96
-49.31
-40.18
-29.56
-18.59
-8.29
0.60
7.69
12.93
16.50
18.76
20.08
20.80
21.21
21.52
21.80
22.03
22.11
21.96
21.50
20.84
20.16
19.75
19.82
20.45
21.48
22.49
22.98
22.49
20.83
18.10
14.69
11.17
8.07
5.62
3.68
1.72
-1.06
-5.46
-11.98
-20.50
-30.22
-39.68
-47.13
-51.00
-50.37
-45.20
-36.31
-25.10
-13.12
-1.63
8.51
16.88
23.32
27.77
30.22
30.73
29.57
27.17
24.18
21.27
18.95
17.50
16.89
16.94
17.39
18.02
18.70
19.37
19.95
20.33
20.29
19.59
18.02
15.50
12.17
8.32
4.36
0.65
-2.66
-5.74
-8.99
-12.92
-17.98
-24.38
-32.00
-40.31
-48.45
-55.26
-59.56
-60.33
-57.10
-50.05
-40.06
-28.52
-16.92
-6.47
2.10
8.54
12.99
15.71
16.93
16.86
15.76
13.96
11.91
10.06
8.79
8.29
8.62
9.70
11.36
13.36
15.39
17.08
18.04
17.96
16.67
14.18
10.68
6.44
1.75
-3.09
-7.84
-12.38
-16.76
-21.24
-26.19
-31.95
-38.48
-45.12
-50.63
-53.44
-52.21
-46.32
-36.20
-23.14
-8.90
4.82
16.83
26.46
33.53
38.07
40.29
40.45
38.96
36.39
33.33
30.30
27.63
25.40
23.52
21.83
20.18
18.54
16.96
15.52
14.23
12.89
11.21
8.79
5.45
1.21
-3.58
-8.46
-13.05
-17.21
-21.12
-25.22
-30.01
-35.95
-43.23
-51.59
-60.25
-67.91
-72.95
-73.83
-69.54
-59.96
-45.93
-29.09
-11.39
5.39
19.93
31.57
40.18
45.98
49.35
50.70
50.47
49.07
46.94
44.45
41.98
39.81
38.11
36.98
36.40
36.32
36.61
37.07
37.44
37.45
36.83
35.41
33.21
30.38
27.22
24.01
20.94
17.93
14.60
10.45
4.99
-1.81
-9.47
-16.91
-22.75
-25.72
-24.99
-20.56
-13.17
-4.17
4.89
12.60
18.02
20.84
21.34
20.31
18.75
17.56
17.34
18.22
19.96
22.07
24.05
25.51
26.30
26.47
26.23
25.89
25.85
26.47
28.01
30.50
33.62
36.79
39.25
40.31
39.61
37.29
33.95
30.47
27.58
25.54
23.85
21.33
16.52
8.21
-3.94
-19.16
-35.57
-50.70
-62.06
-67.83
-67.21
-60.59
-49.30
-35.25
-20.45
-6.62
5.08
14.08
20.43
24.55
27.09
28.71
29.90
30.85
31.41
31.17
29.75
26.96
23.03
18.55
14.39
11.35
10.05
10.67
12.97
16.22
19.38
21.26
20.90
17.85
12.24
4.70
-4.01
-13.38
-23.29
-33.91
-45.29
-57.01
-68.03
-76.84
-81.87
-81.86
-76.28
-65.41
-50.35
-32.74
-14.38
3.03
18.27
30.62
39.85
46.03
49.41
50.37
49.38
47.00
43.85
40.45
37.08
33.87
30.82
27.95
25.40
23.34
21.91
21.05
20.51
19.84
18.59
16.48
13.46
9.73
5.59
1.34
-2.85
-6.96
-11.14
