1539354076.00
64.000000
-0.00
-0.00
-0.00
-0.00
-0.00
-0.00
-0.00
-0.00
-0.00
-0.00
0.00
0.01
0.01
-0.00
-0.03
-0.05
-0.05
0.00
0.13
0.36
0.66
1.01
1.37
1.72
2.06
2.40
2.79
3.24
3.80
4.42
5.06
5.66
6.20
6.68
7.15
7.68
8.31
9.14
10.09
11.04
11.88
12.56
13.14
13.76
14.65
15.96
17.91
20.32
22.90
25.38
27.58
29.57
31.68
34.32
37.81
42.54
48.15
54.10
59.83
64.97
69.58
74.14
79.34
85.71
93.76
103.00
112.62
121.73
129.77
136.75
143.30
150.75
157.77
166.64
177.95
191.79
206.97
220.57
228.25
225.36
208.53
176.87
132.76
80.05
23.07
-34.94
-92.44
-149.16
-205.23
-260.37
-313.74
-363.87
-409.83
-450.91
-486.50
-515.74
-537.23
-549.22
-549.96
-538.37
-514.21
-478.67
-433.88
-382.45
-327.02
-269.84
-212.63
-156.66
-102.95
-52.37
-5.90
35.58
71.43
101.35
125.50
144.38
158.69
169.15
176.37
180.75
182.58
182.07
179.51
175.23
169.65
163.18
156.16
148.83
141.33
133.72
126.00
118.24
110.50
102.87
95.44
88.28
81.41
74.83
68.54
62.51
56.75
51.27
46.11
41.30
36.85
32.75
28.95
25.41
22.07
18.91
15.97
13.30
10.95
8.97
7.33
5.92
4.61
3.28
1.88
0.46
-0.82
-1.80
-2.41
-2.67
-2.80
-3.06
-3.68
-4.74
-6.09
-7.44
-8.44
-8.88
-8.82
-8.57
-8.56
-9.18
-10.54
-12.42
-14.35
-15.84
-16.59
-16.63
-16.28
-15.99
-16.18
-17.22
-19.34
-22.60
-26.60
-30.20
-31.69
-29.19
-21.60
-9.23
6.02
21.30
33.91
42.30
46.40
47.22
46.04
43.72
40.56
36.54
31.82
26.91
22.47
19.04
16.69
15.11
13.83
12.43
10.80
9.14
7.80
7.13
7.32
8.32
9.79
11.28
12.31
12.63
12.28
11.53
10.76
10.26
10.16
10.38
10.79
11.25
11.74
12.27
12.76
13.03
12.82
11.84
9.95
7.26
3.87
0.09
-3.72
-7.27
-10.38
-13.05
-15.35
-17.47
-19.52
-21.50
-23.16
-24.06
-23.68
-21.64
-17.86
-12.69
-6.82
-1.18
3.42
6.42
7.71
7.52
6.30
4.52
2.52
0.53
-1.34
-3.02
-4.43
-5.50
-6.15
-6.35
-6.12
-5.51
-4.58
-3.41
-2.10
-0.77
0.49
1.58
2.43
2.95
3.11
2.94
2.53
2.06
1.63
1.30
1.05
0.81
0.49
0.05
-0.45
-0.93
-1.30
-1.61
-1.92
-2.37
-3.05
-4.00
-5.21
-6.66
-8.34
-9.96
-11.51
-13.10
-14.96
-17.32
-20.33
-24.00
-28.11
-32.20
-35.54
-37.29
-36.58
-32.74
-25.60
-15.49
-3.34
9.67
22.32
33.66
43.08
50.38
55.64
59.13
61.18
62.10
62.24
61.93
61.40
60.85
60.36
60.07
60.12
60.80
62.44
65.36
69.77
75.65
82.62
89.86
96.24
100.44
101.29
98.06
90.67
79.65
65.95
50.62
34.58
18.53
2.96
-11.76
-25.36
-37.70
-48.75
-58.60
-67.33
-74.89
-81.09
-85.69
-88.55
-89.75
-89.61
-88.63
-87.32
-86.13
-85.39
-85.20
-85.41
-85.57
-84.92
-82.63
-78.04
-70.95
-61.67
-50.99
-39.89
-29.30
-19.91
-12.14
-6.15
-2.00
0.40
1.21
0.68
-0.87
-3.07
-5.60
-8.08
-10.18
-11.65
-12.30
-12.16
-11.36
-10.13
-8.66
-7.05
-5.32
-3.45
-1.50
0.37
1.92
2.92
3.23
2.89
2.06
1.00
-0.12
-1.26
-2.49
-3.95
-5.75
-7.92
-10.37
-12.96
-15.55
-18.08
-20.56
-23.07
-25.78
-28.90
-32.58
-36.83
-41.39
-45.67
-48.84
-49.95
-48.27
-43.48
-35.76
-25.82
-14.66
-3.31
7.33
16.67
24.39
30.41
34.78
37.60
38.97
39.01
37.87
35.78
33.09
30.19
27.48
25.26
23.69
22.75
22.36
22.35
22.54
22.72
22.72
22.41
21.73
20.71
19.45
18.01
16.41
14.59
12.45
9.89
6.87
3.39
-0.49
-4.65
-8.92
-13.12
-17.07
-20.71
-24.17
-27.76
-31.82
-36.55
-41.75
-46.75
-50.53
-52.02
-50.37
-45.30
-37.13
-26.72
-15.21
-3.80
6.59
15.33
22.21
27.22
30.47
32.08
32.14
30.80
28.36
25.26
22.03
19.16
16.94
15.43
14.50
13.96
13.61
13.34
13.08
12.78
12.38
11.85
11.11
10.12
8.78
6.98
4.59
1.59
-1.97
-5.94
-10.09
-14.25
-18.29
-22.22
-26.19
-30.47
-35.38
-41.13
-47.62
-54.26
-60.09
-63.87
-64.48
-61.25
-54.18
-43.93
-31.68
-18.73
-6.22
5.09
14.81
22.85
29.22
33.95
37.01
38.41
38.23
36.74
34.34
31.53
28.80
26.51
24.88
23.93
23.60
23.72
24.17
24.79
25.42
25.84
25.84
25.19
23.81
21.73
19.12
16.15
12.88
9.25
5.14
0.50
-4.53
-9.64
-14.51
-18.97
-23.11
-27.21
-31.67
-36.83
-42.76
-49.19
-55.48
-60.62
-63.48
-63.03
-58.71
-50.59
-39.39
-26.32
-12.71
0.30
11.89
21.65
29.41
35.23
39.20
41.56
42.59
42.59
41.88
40.74
39.40
38.05
36.83
35.82
35.08
34.60
34.36
34.37
34.63
35.11
35.68
36.07
35.94
34.98
32.99
30.05
26.41
22.45
18.48
14.63
10.82
6.81
2.37
-2.61
-8.07
-13.77
-19.42
-24.75
-29.62
-34.06
-38.27
-42.61
-47.53
-53.34
-60.11
-67.43
-74.43
-79.87
-82.48
-81.29
-75.98
-66.96
-55.29
-42.34
-29.51
-17.88
-8.04
-0.17
5.91
10.51
13.97
16.60
18.71
20.66
22.83
25.54
28.96
33.08
37.75
42.76
47.96
53.22
58.43
63.38
67.74
71.12
73.20
73.79
72.88
70.65
67.33
63.24
58.68
53.93
49.16
44.45
39.76
35.01
30.13
25.18
20.31
15.71
11.47
7.56
3.74
-0.27
-4.69
-9.50
-14.52
-19.42
-23.92
-27.91
-31.48
-34.94
-38.69
-43.11
-48.46
-54.70
-61.36
-67.47
-71.75
-72.86
-69.87
-62.57
-51.64
-38.39
-24.37
-10.92
1.12
11.43
20.04
27.10
32.68
36.80
39.49
40.85
41.13
40.63
39.67
38.48
37.27
36.19
35.45
35.26
35.77
37.00
38.73
40.57
42.07
42.84
42.69
41.67
39.95
37.78
35.36
32.82
30.23
27.66
25.14
22.61
19.97
17.04
13.69
9.88
5.78
1.69
-2.09
-5.36
-8.09
-10.44
-12.69
-15.10
-17.87
-21.03
-24.49
-28.08
-31.61
-34.93
-38.03
-41.02
-44.14
-47.71
-52.05
-57.27
-63.17
-69.13
-74.11
-76.89
-76.36
-71.83
-63.33
-51.57
-37.78
-23.36
-9.53
2.85
13.30
21.70
28.06
32.51
35.23
36.47
36.56
35.86
34.73
33.47
32.27
31.28
30.57
30.21
30.25
30.69
31.47
32.48
33.57
34.56
35.25
35.47
35.06
33.98
32.26
30.06
27.61
25.12
22.75
20.49
18.20
15.66
12.69
9.21
5.35
1.40
-2.26
-5.34
-7.72
-9.56
-11.24
-13.16
-15.64
-18.73
-22.28
-25.96
-29.48
-32.69
-35.61
-38.41
-41.35
-44.65
-48.54
-53.09
-58.21
-63.47
-68.09
-71.05
-71.29
-68.07
-61.22
-51.23
-39.09
-26.03
-13.15
-1.29
9.05
17.64
24.39
29.30
32.44
33.98
34.19
33.37
31.91
30.16
28.43
27.02
26.14
25.88
26.22
27.04
28.15
29.34
30.40
31.15
31.45
31.22
30.48
29.31
27.88
26.32
24.69
22.90
20.80
18.21
15.09
11.50
7.68
3.93
0.50
-2.47
-5.02
-7.32
-9.60
-12.04
-14.72
-17.62
-20.59
-23.49
-26.22
-28.77
-31.26
-33.92
-37.04
-40.86
-45.51
-50.82
-56.28
-61.00
-63.91
-63.98
-60.59
-53.69
-43.88
-32.22
-19.99
-8.28
2.09
10.72
17.48
22.39
25.52
26.98
26.92
25.62
23.48
20.96
18.53
16.54
15.19
14.51
14.44
14.85
15.61
16.57
17.62
18.55
19.16
19.23
18.65
17.42
15.66
13.54
11.23
8.77
6.11
3.09
-0.42
-4.40
-8.68
-12.98
-17.00
-20.59
-23.78
-26.80
-29.98
-33.68
-38.09
-43.19
-48.63
-53.72
-57.51
-58.98
-57.31
-52.21
-44.00
-33.56
-22.04
-10.57
0.05
9.39
17.31
23.75
28.66
31.93
33.52
33.53
32.29
30.24
27.90
25.66
23.78
22.37
21.43
20.95
20.89
21.21
21.79
22.44
22.89
22.91
22.32
21.08
19.28
17.06
14.59
11.93
9.05
5.83
2.15
-2.08
-6.81
-11.89
-17.03
-21.96
-26.48
-30.51
-34.17
-37.73
-41.57
-46.08
-51.44
-57.51
-63.72
-69.08
-72.38
-72.50
-68.78
-61.19
-50.41
-37.58
-24.05
-11.00
0.79
10.90
19.29
26.08
31.45
35.53
38.38
40.06
40.68
40.46
39.68
38.59
37.38
36.18
35.06
34.12
33.55
33.50
34.06
35.09
36.22
36.96
36.85
35.67
33.48
30.57
27.28
23.87
20.40
16.76
12.77
8.31
3.40
-1.81
-7.07
-12.17
-16.94
-21.31
-25.32
-29.13
-32.99
-37.24
-42.21
-48.05
-54.60
-61.24
-66.94
-70.46
-70.66
-66.93
-59.31
-48.54
-35.76
-22.29
-9.23
2.62
12.91
21.52
28.55
34.14
38.40
41.39
43.19
43.87
43.61
42.68
41.40
40.06
38.91
38.11
37.76
37.84
38.28
38.93
39.58
40.03
40.06
39.55
38.41
36.59
34.12
31.11
27.74
24.20
20.68
17.22
13.79
10.25
6.49
2.46
-1.87
-6.46
-11.27
-16.18
-21.02
-25.57
-29.62
-33.08
-36.09
-38.99
-42.27
-46.38
-51.57
-57.78
-64.48
-70.77
-75.46
-77.37
-75.58
-69.76
-60.25
-47.98
-34.20
-20.18
-6.93
4.96
15.21
23.79
30.75
36.10
39.87
42.09
42.88
42.46
41.22
39.60
38.05
36.92
36.38
36.41
36.86
37.51
38.17
38.73
39.10
39.21
38.92
38.09
36.57
34.32
31.37
27.90
24.13
20.29
16.54
12.94
9.39
5.74
1.83
-2.43
-6.96
-11.58
-16.00
-20.01
-23.49
-26.57
-29.51
-32.69
-36.48
-41.14
-46.66
-52.72
-58.66
-63.48
-66.06
-65.39
-60.88
-52.57
-41.16
-27.84
-13.97
-0.77
10.88
20.53
28.00
33.34
36.68
38.28
38.42
37.49
35.90
34.05
32.25
30.75
29.69
29.08
28.89
28.99
29.27
29.63
30.01
30.35
30.54
30.39
29.62
28.01
25.46
22.11
18.31
14.48
10.88
7.54
4.19
0.44
-3.98
-9.06
-14.46
-19.70
-24.34
-28.20
-31.38
-34.23
-37.18
-40.64
-44.88
-50.06
-56.08
-62.50
-68.49
-72.93
-74.61
-72.57
-66.44
-56.54
-43.86
-29.72
-15.44
-2.05
9.85
20.03
28.50
35.29
40.39
43.77
45.45
45.63
44.66
43.02
41.22
39.65
38.54
37.97
37.88
38.17
38.68
39.24
39.67
39.79
39.42
38.47
36.94
34.94
32.64
30.20
27.67
25.01
22.06
18.71
14.90
10.69
6.26
1.82
-2.52
-6.74
-10.92
-15.21
-19.66
-24.20
-28.64
-32.76
-36.41
-39.63
-42.67
-45.98
-50.01
-55.09
-61.23
-67.97
-74.40
-79.29
-81.36
-79.64
-73.71
-63.86
-51.00
-36.42
-21.45
-7.22
5.54
16.47
25.51
32.76
38.34
42.36
44.90
46.05
45.99
45.03
43.53
41.89
40.40
39.30
38.69
38.60
39.01
39.83
40.89
41.93
42.61
42.62
41.75
39.97
37.45
34.48
31.38
28.36
25.42
22.42
19.12
15.33
11.03
6.43
1.88
-2.28
-5.91
-9.15
-12.34
-15.85
-19.89
-24.38
-29.00
-33.36
-37.19
-40.43
-43.35
-46.40
-50.10
-54.86
-60.77
-67.44
-73.95
-79.00
-81.17
-79.39
-73.19
-62.93
-49.64
-34.76
-19.74
-5.74
6.51
16.73
24.94
31.34
36.14
39.49
41.54
42.41
42.30
41.45
40.20
38.81
37.50
36.41
35.62
35.24
35.31
35.88
36.85
37.95
38.79
38.93
38.02
35.95
32.82
28.96
24.76
20.53
16.46
12.52
8.55
4.34
-0.25
-5.25
-10.44
-15.55
-20.25
-24.38
-27.96
-31.23
-34.56
-38.38
-42.99
-48.52
-54.78
-61.22
-66.89
-70.62
-71.24
-67.97
-60.67
-49.94
-37.01
-23.29
-10.07
1.78
11.89
20.20
26.82
31.84
35.36
37.44
38.23
37.93
36.80
35.15
33.28
31.47
29.96
28.91
28.37
28.30
28.53
28.87
29.06
28.86
28.10
26.70
24.71
22.28
19.54
16.61
13.44
9.93
5.97
1.54
-3.25
-8.17
-12.96
-17.46
-21.65
-25.68
-29.80
-34.28
-39.29
-44.78
-50.36
-55.30
-58.63
-59.34
-56.68
-50.36
-40.75
-28.74
-15.64
-2.76
8.83
18.48
26.01
31.57
35.43
37.81
38.83
38.53
37.05
34.70
31.95
29.29
27.10
25.56
24.63
24.15
23.96
23.94
23.96
23.83
23.32
22.19
20.30
17.66
14.47
10.97
7.37
3.70
-0.14
-4.31
-8.93
-13.97
-19.28
-24.59
-29.65
-34.27
-38.45
-42.36
-46.37
-50.91
-56.18
-61.99
-67.56
-71.71
-73.08
-70.70
-64.26
-54.24
-41.74
-28.09
-14.51
-1.87
9.28
18.67
26.19
31.87
35.83
38.29
39.53
39.85
39.52
38.75
37.69
36.43
35.07
33.73
32.58
31.81
31.57
31.90
32.62
33.36
33.61
32.91
31.02
28.01
24.19
20.05
15.99
12.17
8.47
4.56
0.08
-5.16
-11.04
-17.19
-23.14
-28.47
-33.01
-36.82
-40.21
-43.67
-47.74
-52.83
-58.99
-65.71
-71.89
-76.02
-76.61
-72.70
-64.22
-52.06
-37.75
-22.95
-8.96
3.47
14.14
23.13
30.55
36.38
40.57
43.07
44.07
43.90
43.02
41.84
40.65
39.54
38.50
37.50
36.58
35.84
35.42
35.40
35.73
36.18
36.42
36.10
34.91
32.73
29.60
25.76
21.52
17.17
12.92
8.77
4.62
0.28
-4.38
-9.36
-14.54
-19.69
-24.53
-28.92
-32.83
-36.43
-40.04
-44.04
-48.85
-54.65
-61.29
-68.13
-74.11
-77.87
-78.20
-74.36
-66.33
-54.83
-41.11
-26.55
-12.39
0.54
11.79
21.20
28.77
34.49
38.42
40.62
41.32
40.87
39.72
38.32
36.96
35.76
34.69
33.70
32.81
32.18
32.00
32.37
33.16
33.95
34.25
33.57
31.70
28.77
25.14
21.23
17.38
13.70
10.10
6.40
2.41
-1.93
-6.54
-11.23
-15.80
-20.08
-24.01
-27.64
-31.14
-34.78
-38.85
-43.57
-48.99
-54.83
-60.42
-64.75
-66.67
-65.16
-59.69
-50.41
-38.11
-24.10
-9.83
3.44
14.86
24.03
30.90
35.61
38.36
39.31
38.68
36.77
34.01
30.93
28.05
25.79
24.37
23.81
23.97
24.62
25.48
26.23
26.62
26.45
25.60
24.08
21.96
19.33
16.24
12.74
8.80
4.45
-0.23
-5.13
-10.10
-15.00
-19.71
-24.14
-28.28
-32.26
-36.32
-40.85
-46.22
-52.57
-59.60
-66.47
-71.86
-74.34
-72.75
-66.66
-56.46
-43.28
-28.59
-13.81
0.06
12.42
23.03
31.80
38.69
43.67
46.75
48.08
47.93
46.68
44.74
42.51
40.34
38.44
37.01
36.11
35.78
35.97
36.55
37.32
37.95
38.09
37.41
35.71
32.98
29.38
25.22
20.84
16.52
12.40
8.43
4.39
0.00
-4.93
-10.43
-16.28
-22.13
-27.59
-32.46
-36.72
-40.60
-44.48
-48.82
-54.00
-60.19
-67.16
-74.17
-80.01
-83.25
-82.60
-77.35
-67.61
-54.27
-38.76
-22.62
-7.18
6.65
18.38
27.91
35.39
41.10
45.37
48.48
50.53
51.54
51.49
50.49
48.82
46.89
45.14
43.83
43.07
42.78
42.85
43.16
43.57
43.92
43.97
43.46
42.17
40.03
37.08
33.45
29.27
24.70
19.88
15.00
10.21
5.63
1.25
-3.09
-7.54
-12.23
-17.11
-22.02
-26.72
-31.03
-34.91
-38.49
-41.98
-45.73
-50.07
-55.32
-61.54
-68.46
-75.33
-80.94
-83.90
-82.99
-77.59
-67.85
-54.71
-39.53
-23.79
-8.66
5.05
16.97
27.00
35.13
41.42
45.93
48.71
49.93
49.79
48.62
46.79
44.73
42.82
41.33
40.41
40.10
40.31
40.96
41.89
42.87
43.59
43.70
42.93
41.20
38.62
35.50
32.17
28.85
25.51
22.01
18.17
13.92
9.41
4.90
0.61
-3.42
-7.30
-11.22
-15.29
-19.44
-23.47
-27.15
-30.37
-33.25
-36.06
-39.17
-42.94
-47.62
-53.25
-59.61
-66.08
-71.61
-74.85
-74.53
-69.85
-60.79
-48.18
-33.38
-17.83
-2.70
11.28
23.73
34.37
42.92
49.12
52.84
54.25
53.83
52.28
50.47
49.24
49.23
50.75
53.58
57.00
59.96
61.47
61.01
58.67
55.13
51.18
47.41
43.92
40.43
36.54
31.98
26.80
21.30
15.77
10.37
5.00
-0.64
-6.94
-14.19
-22.38
-31.20
-40.07
-48.36
-55.52
-61.33
-65.92
-69.67
-73.09
-76.61
-80.52
-84.89
-89.45
-93.58
-96.31
-96.46
-92.97
-85.22
-73.34
-58.16
-41.00
-23.31
-6.30
9.20
22.78
34.25
43.59
50.86
56.22
59.95
62.46
64.18
65.43
66.44
67.26
67.87
68.23
68.36
68.36
68.28
68.16
67.84
67.02
65.34
62.51
58.43
53.20
47.12
40.47
33.47
26.12
18.29
9.79
0.48
-9.52
-19.88
-30.00
-39.22
-47.01
-53.10
-57.61
-60.89
-63.42
-65.58
-67.56
-69.37
-70.92
-72.15
-73.11
-73.99
-75.12
-76.90
-79.71
-83.71
-88.66
-93.76
-97.71
-99.01
-96.38
-89.17
-77.60
-62.65
-45.79
-28.53
-12.09
2.75
15.61
26.36
35.02
41.66
46.38
49.32
50.68
50.77
49.95
48.57
46.95
45.32
43.88
42.79
42.24
42.38
43.22
44.61
46.14
47.31
47.66
46.94
45.20
42.70
39.77
36.67
33.47
30.11
26.47
22.47
18.13
13.59
9.02
4.56
0.24
-3.97
-8.18
-12.46
-16.80
-21.09
-25.22
-29.11
-32.74
-36.16
-39.48
-42.85
-46.52
-50.82
-56.04
-62.26
-69.06
-75.42
-79.84
-80.77
-77.13
-68.72
-56.32
-41.37
-25.54
-10.27
3.51
15.36
25.18
32.99
38.85
42.81
45.00
45.64
45.07
43.68
41.83
39.86
38.03
36.55
35.55
35.10
35.20
35.75
36.60
37.56
38.38
38.80
38.59
37.59
35.80
33.35
30.44
27.30
24.02
20.62
17.06
13.33
9.48
5.57
1.64
-2.37
-6.55
-10.98
-15.62
-20.29
-24.79
-28.87
-32.41
-35.46
-38.23
-41.10
-44.53
-48.93
-54.50
-61.00
-67.60
-73.01
-75.67
-74.29
-68.22
-57.75
-44.02
-28.67
-13.39
0.57
12.50
22.20
29.76
35.30
38.91
40.65
40.67
39.30
37.01
34.35
31.79
29.62
27.92
26.67
25.84
25.45
25.54
26.14
27.10
28.14
28.81
28.70
27.53
25.29
22.22
18.68
15.02
11.44
7.94
4.35
0.41
-4.08
-9.16
-14.67
-20.27
-25.54
-30.15
-33.97
-37.11
-39.99
-43.17
-47.21
-52.49
-58.96
-66.00
-72.46
-76.83
-77.63
-73.89
-65.45
-53.02
-38.00
-22.02
-6.55
7.38
19.21
28.79
36.14
41.40
44.70
46.26
46.32
45.21
43.32
41.05
38.77
36.75
35.19
34.13
33.57
33.49
33.88
34.74
35.94
37.21
38.15
38.35
37.54
35.71
33.11
30.05
26.81
23.45
19.88
15.98
11.69
7.11
2.41
-2.26
-6.86
-11.49
-16.30
-21.33
-26.48
-31.51
-36.11
-40.10
-43.52
-46.67
-50.06
-54.25
-59.70
-66.53
-74.34
-82.14
-88.46
-91.67
-90.42
-84.04
-72.79
-57.76
-40.54
-22.84
-6.08
8.75
21.17
31.03
38.47
43.77
47.24
49.23
50.02
49.83
48.87
47.31
45.40
43.43
41.70
40.48
39.92
40.02
40.66
41.62
42.59
43.32
43.58
43.27
42.36
40.87
38.80
36.16
32.94
29.17
24.97
20.49
15.95
11.48
7.18
2.98
-1.22
-5.58
-10.21
-15.11
-20.16
-25.14
-29.80
-33.95
-37.54
-40.75
-43.97
-47.71
-52.45
-58.48
-65.66
-73.33
-80.32
-85.14
-86.32
-82.83
-74.38
-61.53
-45.56
-28.16
-11.01
4.59
17.82
28.47
36.68
42.77
47.04
49.74
51.00
51.00
49.96
48.18
46.03
43.87
41.99
40.58
39.76
39.57
39.96
40.79
41.82
42.72
43.19
42.99
42.04
40.40
38.26
35.78
33.06
30.07
26.67
22.75
18.31
13.51
8.63
3.94
-0.37
-4.31
-8.04
-11.77
-15.69
-19.87
-24.21
-28.55
-32.67
-36.43
-39.79
-42.95
-46.31
-50.36
-55.54
-61.90
-68.92
-75.45
-79.90
-80.65
-76.61
-67.57
-54.34
-38.46
-21.77
-5.84
8.25
20.01
29.35
36.32
41.02
43.54
44.09
43.05
40.95
38.41
35.91
33.73
31.94
30.48
29.35
28.66
28.56
29.17
30.38
31.85
33.11
33.66
33.21
31.70
29.27
26.20
22.77
19.17
15.48
11.68
7.68
3.38
-1.26
-6.18
-11.26
-16.28
-21.06
-25.46
-29.51
-33.40
-37.46
-42.03
-47.35
-53.31
-59.34
-64.41
-67.21
-66.54
-61.65
-52.57
-40.09
-25.57
-10.51
3.81
16.49
27.07
35.39
41.44
45.26
46.95
46.73
44.95
42.12
38.75
35.33
32.25
29.78
28.07
27.18
27.02
27.43
28.15
28.91
29.51
29.82
29.74
29.14
27.85
25.69
22.57
18.64
14.18
9.60
5.21
1.07
-2.96
-7.21
-11.93
-17.19
-22.78
-28.35
-33.52
-38.03
-41.90
-45.38
-48.91
-52.96
-57.94
-63.99
-70.85
-77.72
-83.34
-86.22
-84.98
-78.87
-67.99
-53.36
-36.64
-19.58
-3.68
10.16
21.62
30.76
37.82
43.03
46.54
48.47
48.96
48.22
46.58
44.43
42.18
40.21
38.76
37.91
37.64
37.83
38.32
38.98
39.65
40.17
40.36
40.03
38.99
37.14
34.40
30.88
26.75
22.31
17.79
13.38
9.09
4.83
0.40
-4.33
-9.41
-14.76
-20.22
-25.51
-30.39
-34.65
-38.24
-41.34
-44.34
-47.84
-52.41
-58.36
-65.47
-72.93
-79.33
-83.08
-82.77
-77.64
-67.80
-54.19
-38.30
-21.77
-5.96
8.16
20.12
29.78
37.21
42.56
46.01
47.78
48.13
47.40
45.92
44.04
42.06
40.22
38.71
37.65
37.13
37.18
37.76
38.71
39.78
40.63
40.94
40.48
39.16
37.03
34.27
31.04
27.50
23.76
19.89
15.94
11.97
7.99
3.96
-0.21
-4.64
-9.38
-14.35
-19.37
-24.22
-28.69
-32.72
-36.34
-39.71
-43.06
-46.66
-50.87
-55.97
-62.08
-68.91
-75.60
-80.83
-83.07
-81.07
-74.28
-63.09
-48.68
-32.68
-16.65
-1.79
11.24
22.17
30.97
37.67
42.29
44.90
45.68
44.93
43.10
40.63
37.94
35.31
32.94
30.94
29.46
28.60
28.49
29.12
30.34
31.76
32.88
33.19
32.36
30.34
27.36
23.84
20.21
16.73
13.45
10.17
6.60
2.50
-2.17
-7.24
-12.39
-17.30
-21.75
-25.75
-29.50
-33.30
-37.49
-42.36
-47.97
-54.07
-60.04
-64.81
-67.15
-65.88
-60.32
-50.54
-37.45
-22.52
-7.42
6.45
18.19
27.46
34.27
38.79
41.18
41.60
40.28
37.59
34.05
30.25
26.68
23.71
21.49
20.06
19.39
19.39
19.92
20.74
21.54
21.98
21.77
20.73
18.87
16.32
13.32
10.12
6.88
3.60
0.13
-3.76
-8.22
-13.26
-18.66
-24.12
-29.35
-34.20
-38.75
-43.30
-48.26
-53.97
-60.50
-67.47
-73.93
-78.52
-79.76
-76.57
-68.65
-56.60
-41.79
-25.88
-10.37
3.73
15.89
25.91
33.78
39.52
43.23
45.10
45.44
44.61
42.97
40.83
38.46
36.10
33.99
32.30
31.18
30.69
30.82
31.48
32.52
33.64
34.44
34.48
33.38
31.05
27.63
23.55
19.30
15.22
11.36
7.50
3.29
-1.56
-7.07
-13.01
-18.97
-24.55
-29.57
-34.03
-38.12
-42.12
-46.34
-51.11
-56.73
-63.27
-70.38
-77.14
-82.07
-83.58
-80.42
-72.20
-59.57
-44.03
-27.39
-11.27
3.23
15.66
25.95
34.18
40.42
44.72
47.19
48.03
47.59
46.28
44.53
42.65
40.87
39.31
38.08
37.24
36.89
37.03
37.59
38.38
39.11
39.47
39.18
38.09
36.16
33.46
30.09
26.18
21.83
17.14
12.26
7.31
2.40
-2.44
-7.25
-12.14
-17.23
-22.58
-28.14
-33.80
-39.33
-44.56
-49.38
-53.86
-58.26
-63.00
-68.57
-75.33
-83.26
-91.75
-99.57
-105.04
-106.51
-102.84
-93.77
-79.97
-62.79
-43.84
-24.58
-6.05
11.08
26.44
39.74
50.76
59.31
65.39
69.17
70.99
71.33
70.62
69.24
67.41
65.28
62.99
60.71
58.64
57.02
55.99
55.49
55.26
54.84
53.71
51.45
47.92
43.33
38.14
32.86
27.86
23.22
18.74
14.12
9.12
3.71
-1.90
-7.45
-12.64
-17.34
-21.57
-25.50
-29.35
-33.41
-37.95
-43.22
-49.32
-56.00
-62.54
-67.78
-70.31
-68.92
-62.98
-52.75
-39.28
-24.15
-8.95
5.07
17.14
26.95
34.42
39.54
42.34
42.96
41.72
39.16
35.98
32.82
30.13
28.11
26.73
25.89
25.53
25.64
26.22
27.17
28.20
28.92
28.91
27.93
25.96
23.20
19.97
16.49
12.87
9.05
4.88
0.25
-4.83
-10.24
-15.72
-20.99
-25.81
-30.09
-33.91
-37.53
-41.38
-45.93
-51.52
-58.08
-64.97
-70.98
-74.60
-74.41
-69.61
-60.24
-47.23
-32.05
-16.29
-1.31
12.00
23.23
32.30
39.26
44.22
47.24
48.42
47.95
46.19
43.61
40.73
38.05
35.92
34.47
33.71
33.49
33.67
34.13
34.74
35.42
35.97
36.14
35.64
34.22
31.79
28.46
24.54
20.40
16.32
12.40
8.52
4.47
0.06
-4.77
-9.95
-15.33
-20.73
-26.02
-31.06
-35.73
-39.93
-43.65
-47.11
-50.70
-54.97
-60.41
-67.14
-74.68
-81.91
-87.23
-89.00
-86.00
-77.88
-65.22
-49.40
-32.12
-15.04
0.61
14.18
25.45
34.53
41.62
46.89
50.45
52.37
52.75
51.82
49.94
47.58
45.22
43.22
41.81
41.09
41.09
41.79
43.11
44.85
46.65
48.01
48.47
47.71
45.73
42.80
39.33
35.68
32.08
28.47
24.67
20.45
15.70
10.54
5.26
0.21
-4.36
-8.41
-12.08
-15.65
-19.36
-23.34
-27.56
-31.91
-36.22
-40.32
-44.16
-47.81
-51.49
-55.57
-60.51
-66.57
-73.59
-80.79
-86.77
-89.84
-88.50
-81.95
-70.41
-55.05
-37.63
-19.99
-3.59
10.68
22.54
32.06
39.47
44.95
48.63
50.64
51.17
50.52
49.02
47.06
44.94
42.89
41.13
39.82
39.13
39.20
40.05
41.52
43.30
44.92
45.90
45.88
44.70
42.42
39.32
35.78
32.16
28.68
25.30
21.81
17.93
13.48
8.52
3.35
-1.61
-6.07
-9.95
-13.45
-16.90
-20.58
-24.59
-28.80
-32.98
-36.88
-40.42
-43.64
-46.77
-50.12
-54.08
-58.98
-64.92
-71.66
-78.38
-83.80
-86.37
-84.77
-78.27
-67.07
-52.24
-35.37
-18.19
-2.14
11.87
23.42
32.44
39.07
43.48
45.86
46.43
45.49
43.45
40.75
37.86
35.23
33.22
32.03
31.72
32.16
33.08
34.18
35.22
36.04
36.58
36.75
36.47
35.58
33.95
31.53
28.44
24.84
20.93
16.84
12.61
8.25
3.77
-0.77
-5.31
-9.77
-14.12
-18.32
-22.32
-26.11
-29.63
-32.93
-36.15
-39.49
-43.20
-47.52
-52.60
-58.41
-64.61
-70.47
-74.88
-76.53
-74.25
-67.41
-56.22
-41.69
-25.43
-9.16
5.74
18.43
28.64
36.44
42.00
45.46
46.91
46.54
44.69
41.83
38.57
35.42
32.77
30.81
29.57
29.02
29.12
29.75
30.78
31.96
32.99
33.53
33.38
32.45
30.80
28.57
25.88
22.82
19.39
15.61
11.54
7.29
2.95
-1.38
-5.78
-10.34
-15.20
-20.40
-25.84
-31.27
-36.38
-40.92
-44.77
-48.04
-51.03
-54.19
-58.04
-62.98
-69.12
-76.09
-83.01
-88.45
-90.80
-88.68
-81.40
-69.22
-53.30
-35.41
-17.34
-0.54
14.12
26.26
35.83
42.95
47.74
50.43
51.32
50.79
49.27
47.11
44.64
42.14
39.89
38.14
37.07
36.71
36.97
37.67
38.57
39.46
40.13
40.39
40.05
38.93
36.96
34.21
30.83
27.03
23.03
18.95
14.85
10.70
6.41
1.86
-3.05
-8.36
-13.99
-19.77
-25.43
-30.69
-35.35
-39.37
-42.87
-46.14
-49.59
-53.65
-58.75
-65.04
-72.26
-79.53
-85.39
-88.15
-86.34
-79.28
-67.28
-51.61
-34.05
-16.40
-0.07
14.12
25.82
35.05
41.94
46.69
49.49
50.57
50.24
48.80
46.61
44.03
41.41
39.02
37.03
35.55
34.60
34.20
34.33
34.96
35.93
36.99
37.75
37.78
36.74
34.50
31.19
27.13
22.76
18.42
14.27
10.25
6.16
1.77
-3.05
-8.33
-13.92
-19.55
-24.98
-29.97
-34.46
-38.49
-42.29
-46.17
-50.54
-55.74
-61.95
-68.95
-75.94
-81.58
-84.23
-82.47
-75.61
-63.95
-48.75
-31.77
-14.81
0.77
14.18
25.09
33.46
39.37
42.98
44.48
44.18
42.42
39.63
36.23
32.65
29.29
26.51
24.51
23.39
23.09
23.45
24.24
25.21
26.05
26.46
26.21
25.13
23.21
20.55
17.31
13.65
9.62
5.18
0.29
-5.00
-10.55
-16.09
-21.36
-26.22
-30.72
-35.16
-40.02
-45.77
-52.61
-60.26
-67.82
-73.87
-76.80
-75.32
-68.81
-57.57
-42.74
-25.96
-8.91
7.01
20.90
32.29
41.07
47.30
51.15
52.84
52.68
51.02
48.28
44.92
41.37
38.01
35.14
32.96
31.57
30.98
31.13
31.84
32.87
33.88
34.48
34.29
33.07
30.72
27.42
23.49
19.34
15.25
11.29
7.31
2.94
-2.13
-8.05
-14.67
-21.60
-28.35
-34.48
-39.79
-44.32
-48.43
-52.64
-57.50
-63.43
-70.53
-78.37
-85.93
-91.67
-93.90
-91.21
-82.97
-69.60
-52.46
-33.51
-14.70
2.50
17.31
29.61
39.61
47.57
53.59
57.61
59.58
59.62
58.05
55.48
52.53
49.74
47.50
45.94
45.09
44.86
45.12
45.69
46.39
46.99
47.25
46.99
46.03
44.26
41.61
38.05
33.72
28.84
23.76
18.77
14.02
9.39
4.59
-0.68
-6.59
-13.01
-19.57
-25.85
-31.50
-36.41
-40.69
-44.61
-48.47
-52.64
-57.48
-63.29
-70.10
-77.39
-84.02
-88.31
-88.54
-83.50
-73.00
-57.97
-40.18
-21.63
-4.02
11.61
24.84
35.65
44.18
50.50
54.69
56.88
57.35
56.48
54.73
52.52
50.16
47.88
45.84
44.20
43.14
42.78
43.16
44.12
45.36
46.44
46.94
46.56
45.17
42.90
40.00
36.75
33.33
29.74
25.82
21.41
16.46
11.16
5.85
0.90
-3.51
-7.48
-11.33
-15.44
-20.01
-24.99
-30.06
-34.80
-38.88
-42.20
-44.94
-47.55
-50.59
-54.64
-60.04
-66.72
-74.06
-80.85
-85.52
-86.47
-82.58
-73.56
-60.09
-43.60
-25.92
-8.76
6.66
19.71
30.22
38.29
44.05
47.57
48.87
48.15
45.80
42.47
38.93
35.89
33.77
32.65
32.32
32.42
32.69
33.00
33.41
34.00
34.73
35.35
35.48
34.71
32.80
29.80
25.99
21.75
17.45
13.22
9.02
4.64
-0.10
-5.30
-10.86
-16.56
-22.07
-27.10
-31.48
-35.21
-38.48
-41.70
-45.35
-49.95
-55.78
-62.71
-70.09
-76.68
-80.91
-81.30
-76.83
-67.33
-53.56
-36.99
-19.40
-2.49
12.50
24.94
34.68
41.90
46.91
49.95
51.24
50.98
49.47
47.07
44.24
41.41
38.91
36.95
35.64
35.04
35.21
36.17
37.79
39.74
41.51
42.53
42.35
40.82
38.14
34.73
31.09
27.54
24.16
20.75
17.05
12.84
8.13
3.10
-1.97
-6.86
-11.49
-15.94
-20.35
-24.82
-29.36
-33.85
-38.12
-42.03
-45.51
-48.65
-51.71
-55.13
-59.45
-65.12
-72.27
-80.42
-88.35
-94.32
-96.49
-93.47
-84.84
-71.24
-54.19
-35.62
-17.31
-0.58
13.83
25.69
35.06
42.15
47.21
50.48
52.22
52.67
52.09
50.74
48.90
46.84
44.83
43.09
41.87
41.31
41.47
42.26
43.47
44.77
45.83
46.39
46.28
45.45
43.89
41.63
38.78
35.46
31.85
28.13
24.42
20.76
17.09
13.28
9.23
4.92
0.45
-3.99
-8.14
-11.80
-14.93
-17.68
-20.38
-23.41
-27.05
-31.34
-36.06
-40.81
-45.24
-49.18
-52.74
-56.28
-60.30
-65.26
-71.43
-78.64
-86.20
-92.83
-96.91
-96.83
-91.57
-80.96
-65.88
-47.98
-29.18
-11.19
4.82
18.29
29.11
37.40
43.32
47.11
49.02
49.41
48.69
47.29
45.56
43.75
41.99
40.37
38.97
37.92
37.38
37.52
38.39
39.88
41.64
43.19
44.02
43.78
42.38
40.03
37.11
34.05
31.10
28.26
25.31
22.02
18.25
14.05
9.68
5.51
1.78
-1.43
-4.31
-7.18
-10.35
-13.91
-17.70
-21.37
-24.52
-26.91
-28.58
-29.87
-31.25
-33.25
-36.28
-40.48
-45.65
-51.15
-55.84
-58.25
-56.89
-50.65
-39.18
-23.08
-3.71
17.16
37.91
57.35
74.85
90.22
103.42
114.48
123.44
130.51
136.12
141.02
146.08
152.08
159.45
168.15
177.73
187.58
197.23
206.61
216.13
226.44
237.94
250.15
261.32
268.45
268.02
257.12
234.51
201.27
160.32
115.57
70.46
27.04
-14.30
-54.46
-94.90
-137.01
-181.61
-228.61
-276.66
-323.11
-364.37
-396.78
-417.85
-427.17
-426.59
-419.39
-408.86
-396.92
-383.50
-366.90
-344.96
-316.37
-281.51
-242.33
-201.64
-161.93
-124.74
-90.52
-59.05
-30.17
-4.17
18.33
36.83
51.23
61.84
69.07
73.32
75.17
75.89
77.44
81.86
90.15
101.40
113.01
122.09
127.21
129.42
131.62
136.83
146.12
157.71
167.77
172.23
168.61
156.83
138.70
116.67
92.80
68.30
43.85
20.09
-2.07
-21.53
-37.44
-49.63
-58.77
-66.20
-73.50
-81.89
-91.82
-102.95
-114.42
-125.33
-135.21
-144.00
-151.94
-159.01
-164.65
-167.75
-167.01
-161.62
-151.70
-138.51
-124.08
-110.65
-99.89
-92.52
-87.99
-84.67
-80.21
-72.19
-58.87
-39.82
-16.40
8.41
30.61
46.34
53.06
50.43
40.28
25.89
10.79
-2.24
-11.66
-17.04
-18.57
-16.59
-11.44
-3.59
6.14
16.58
26.35
34.26
39.59
42.14
42.16
40.08
36.34
31.31
25.24
18.29
10.49
1.85
-7.65
-17.96
-28.87
-39.88
-50.22
-58.87
-64.70
-66.77
-64.54
-58.00
-47.67
-34.44
-19.39
-3.60
11.91
26.19
38.41
47.91
54.28
57.46
57.75
55.77
52.33
48.23
44.13
40.48
37.44
34.93
32.76
30.67
28.48
26.12
23.56
20.79
17.72
14.16
9.86
4.64
-1.54
-8.46
-15.69
-22.63
-28.74
-33.65
-37.28
-39.83
-41.74
-43.59
-45.98
-49.39
-54.10
-59.92
-66.09
-71.21
-73.43
-70.90
-62.34
-47.43
-26.92
-2.41
24.17
50.99
76.61
99.93
120.11
136.39
148.14
154.97
156.84
154.24
148.11
139.66
130.14
120.62
111.77
103.80
96.61
89.90
83.43
77.07
70.78
64.55
58.28
51.81
44.90
37.42
29.32
20.76
12.03
3.51
-4.49
-11.80
-18.43
-24.64
-30.79
-37.30
-44.58
-52.91
-62.26
-72.15
-81.51
-88.81
-92.34
-90.74
-83.43
-70.86
-54.30
-35.52
-16.22
2.23
18.97
33.53
45.69
55.38
62.64
67.61
70.48
71.53
71.00
69.18
66.41
63.06
59.54
56.25
53.44
51.19
49.48
48.15
47.04
45.92
44.54
42.65
40.06
36.65
32.44
27.55
22.12
16.24
9.94
3.25
-3.71
-10.71
-17.47
-23.82
-29.80
-35.74
-42.19
-49.65
-58.32
-67.83
-77.11
-84.56
-88.41
-87.25
-80.46
-68.44
-52.45
-34.24
-15.56
2.19
18.14
31.87
43.26
52.31
59.10
63.71
66.31
67.07
66.20
63.98
60.72
56.82
52.70
48.75
45.29
42.51
40.42
38.87
37.63
36.35
34.73
32.52
29.56
25.81
21.32
16.28
10.98
5.78
1.07
-2.77
-5.53
-7.19
-7.94
-8.12
-8.11
-8.17
-8.42
-8.84
-9.34
-9.88
-10.55
-11.59
-13.35
-16.23
-20.60
-26.72
-34.65
-44.15
-54.55
-64.69
-73.04
-77.92
-77.94
-72.35
-61.34
-45.99
-27.92
-8.97
9.27
25.65
39.52
50.55
58.66
63.86
66.21
65.94
63.43
59.28
54.19
48.87
43.89
39.54
35.94
33.03
30.77
29.16
28.25
27.98
28.13
28.31
28.07
27.05
25.09
22.28
18.86
15.13
11.29
7.42
3.41
-0.95
-5.86
-11.40
-17.41
-23.54
-29.33
-34.42
-38.70
-42.34
-45.76
-49.44
-53.81
-59.06
-65.05
-71.22
-76.61
-79.96
-79.95
-75.60
-66.56
-53.36
-37.27
-19.98
-3.18
11.88
24.54
34.68
42.52
48.31
52.21
54.30
54.61
53.32
50.77
47.51
44.07
40.90
38.24
36.18
34.77
34.02
33.96
34.50
35.38
36.16
36.37
35.66
33.92
31.34
28.23
24.88
21.39
17.69
13.60
9.01
4.00
-1.24
-6.44
-11.41
-16.17
-20.87
-25.71
-30.75
-35.89
-40.87
-45.40
-49.34
-52.71
-55.76
-58.86
-62.44
-66.96
-72.69
-79.58
-87.05
-93.92
-98.61
-99.50
-95.48
-86.30
-72.65
-55.92
-37.76
-19.64
-2.67
12.52
25.56
36.30
44.64
50.64
54.47
56.43
56.94
56.39
55.14
53.47
51.59
49.69
47.92
46.44
45.37
44.83
44.84
45.35
46.22
47.20
47.97
48.19
47.66
46.32
44.31
41.86
39.20
36.48
33.69
30.78
27.68
24.41
21.10
17.93
15.06
12.57
10.44
8.59
6.97
5.53
4.24
3.06
1.84
0.45
-1.25
-3.28
-5.54
-7.87
-10.13
-12.31
-14.53
-16.94
-19.64
-22.55
-25.51
-28.35
-31.06
-33.78
-36.77
-40.28
-44.37
-48.89
-53.53
-57.96
-61.96
-65.50
-68.77
-72.14
-76.08
-81.05
-87.32
-94.78
-102.65
-109.55
-113.67
-113.26
-107.25
-95.61
-79.38
-60.36
-40.50
-21.39
-4.02
11.22
24.27
35.19
43.98
50.66
55.33
58.29
59.96
60.77
61.10
61.16
61.03
60.79
60.58
60.68
61.42
63.11
65.90
69.73
74.31
79.17
83.84
87.88
91.06
93.37
95.04
96.44
97.99
99.99
102.49
105.32
108.12
110.57
112.51
114.07
115.60
117.61
120.54
124.63
129.80
135.56
141.06
145.03
145.79
141.43
130.06
110.29
81.71
45.02
1.92
-45.52
-95.42
-146.42
-197.61
-248.17
-297.05
-343.02
-384.90
-421.83
-453.18
-478.05
-494.83
-501.04
-494.03
-472.00
-435.00
-385.26
-326.76
-264.20
-201.82
-142.52
-87.63
-37.14
9.72
53.89
95.95
135.94
173.29
207.01
236.00
259.28
276.12
286.01
288.58
283.58
271.04
251.48
226.06
196.59
165.26
134.30
105.57
80.31
59.10
41.92
28.45
18.15
10.42
4.65
0.29
-3.12
-5.80
-7.69
-8.59
-8.28
-6.75
-4.33
-1.67
0.37
0.93
-0.63
-4.52
-10.49
-17.88
-25.84
-33.59
-40.62
-46.75
-52.10
-56.89
-61.34
-65.55
-69.55
-73.32
-76.84
-80.10
-83.11
-85.86
-88.31
-90.37
-91.82
-92.17
-90.69
-86.52
-78.99
-67.90
-53.80
-37.84
-21.50
-6.16
7.22
18.21
26.79
33.10
37.27
39.31
39.25
37.27
33.73
29.16
24.13
19.17
14.73
11.32
9.54
10.12
13.81
21.18
32.38
47.00
64.11
82.48
100.86
118.31
134.32
148.81
161.93
173.79
184.18
192.66
198.70
202.02
202.86
201.89
199.77
196.72
192.22
185.16
174.37
159.26
140.21
118.38
95.15
71.49
47.60
22.99
-3.16
-31.82
-64.11
-101.29
-144.29
-192.66
-243.48
-291.04
-328.09
-348.21
-348.58
-331.26
-302.49
-270.01
-240.06
-215.37
-195.32
-177.56
-160.10
-142.54
-125.82
-111.15
-98.80
-87.80
-76.53
-63.77
-49.48
-34.91
-21.98
-12.20
-5.99
-2.51
-0.20
2.41
6.03
10.34
14.34
16.94
17.50
16.03
13.07
9.39
5.61
2.09
-1.08
-4.04
-7.00
-10.19
-13.82
-18.02
-22.89
-28.52
-34.98
-42.22
-49.87
-57.08
-62.55
-64.77
-62.51
-55.22
-43.32
-28.05
-11.07
6.06
22.18
36.69
49.35
60.09
68.83
75.44
79.83
82.04
82.28
80.92
78.40
75.22
71.89
68.86
66.55
65.20
64.85
65.29
66.08
66.65
66.47
65.21
62.76
59.27
55.02
50.30
45.29
40.01
34.40
28.37
21.94
15.22
8.42
1.75
-4.69
-10.97
-17.30
-24.00
-31.41
-39.74
-48.94
-58.54
-67.55
-74.58
-78.09
-76.86
-70.37
-58.99
-43.91
-26.77
-9.23
7.42
22.37
35.28
46.07
54.77
61.36
65.79
68.06
68.27
66.72
63.92
60.48
57.00
53.89
51.35
49.34
47.74
46.39
45.21
44.19
43.27
42.36
41.21
39.44
36.70
32.76
27.67
21.72
15.35
8.98
2.90
-2.87
-8.44
-14.04
-19.93
-26.31
-33.35
-41.12
-49.40
-57.57
-64.55
-68.93
-69.36
-64.99
-55.76
-42.52
-26.76
-10.14
5.92
20.48
33.13
43.70
52.09
58.11
61.55
62.32
60.65
57.09
52.45
47.56
43.05
39.31
36.46
34.45
33.12
32.33
31.85
31.41
30.70
29.48
27.65
25.28
22.56
19.67
16.67
13.44
9.75
5.37
0.22
-5.60
-11.79
-18.01
-24.01
-29.73
-35.31
-41.04
-47.27
-54.25
-62.02
-70.20
-77.94
-83.93
-86.62
-84.61
-77.14
-64.36
-47.41
-28.14
-8.58
9.63
25.46
38.60
49.10
57.16
62.86
66.20
67.25
66.29
63.87
60.68
57.44
54.65
52.54
51.14
50.38
50.18
50.54
51.43
52.72
54.14
55.30
55.81
55.39
53.98
51.73
48.93
45.85
42.69
39.51
36.29
32.97
29.55
26.08
22.65
19.36
16.26
13.37
10.67
8.18
5.94
3.98
2.28
0.70
-0.92
-2.80
-5.07
-7.79
-10.93
-14.46
-18.30
-22.33
-26.36
-30.22
-33.84
-37.33
-40.98
-45.16
-50.10
-55.72
-61.67
-67.43
-72.62
-77.13
-81.23
-85.45
-90.48
-96.84
-104.74
-113.77
-122.76
-129.87
-133.00
-130.36
-121.11
-105.71
-85.78
-63.60
-41.38
-20.71
-2.38
13.48
27.04
38.50
47.96
55.46
61.08
65.02
67.51
68.75
68.92
68.18
66.75
64.96
63.21
61.89
61.33
61.63
62.67
64.13
65.57
66.51
66.61
65.67
63.76
61.10
58.00
54.74
51.45
48.14
44.71
41.06
37.18
33.15
29.13
25.28
21.74
18.57
15.75
13.25
10.97
8.87
6.89
4.98
3.07
1.08
-1.07
-3.42
-5.96
-8.67
-11.53
-14.54
-17.73
-21.10
-24.64
-28.34
-32.24
-36.41
-40.90
-45.68
-50.60
-55.41
-59.89
-63.93
-67.60
-71.21
-75.24
-80.23
-86.57
-94.31
-102.79
-110.65
-115.98
-116.85
-111.95
-101.06
-85.16
-66.07
-45.89
-26.39
-8.68
6.72
19.72
30.35
38.71
44.97
49.38
52.28
53.98
54.73
54.65
53.83
52.43
50.70
48.98
47.59
46.78
46.64
47.16
48.21
49.56
50.92
51.93
52.29
51.80
50.40
48.23
45.52
42.57
39.63
36.83
34.19
31.61
28.95
26.12
23.12
20.06
17.06
14.25
11.66
9.26
7.00
4.84
2.78
0.77
-1.26
-3.45
-5.92
-8.74
-11.84
-15.03
-18.09
-20.83
-23.26
-25.58
-28.13
-31.27
-35.16
-39.73
-44.68
-49.62
-54.22
-58.34
-62.02
-65.48
-69.14
-73.47
-78.95
-85.77
-93.59
-101.27
-107.07
-108.97
-105.48
-96.04
-81.38
-63.21
-43.65
-24.64
-7.48
7.19
19.32
29.09
36.78
42.62
46.78
49.46
50.80
50.97
50.16
48.56
46.43
44.07
41.85
40.14
39.28
39.44
40.59
42.47
44.59
46.42
47.54
47.80
47.27
46.20
44.80
43.19
41.33
39.16
36.63
33.78
30.68
27.36
23.81
20.02
16.07
12.18
8.67
5.79
3.63
2.01
0.60
-0.95
-2.91
-5.34
-8.14
-11.13
-14.13
-17.08
-19.96
-22.90
-26.04
-29.55
-33.55
-37.98
-42.67
-47.28
-51.49
-55.07
-58.15
-61.17
-64.83
-69.89
-76.80
-85.40
-94.75
-103.21
-108.78
-109.68
-104.83
-94.17
-78.66
-59.93
-39.89
-20.24
-2.26
13.31
26.12
36.16
43.61
48.81
52.13
53.94
54.51
54.07
52.83
51.05
48.99
46.97
45.22
43.95
43.29
43.31
44.02
45.29
46.86
48.35
49.36
49.64
49.11
47.91
46.26
44.35
42.23
39.82
36.95
33.54
29.60
25.31
20.95
16.79
13.01
9.65
6.57
3.57
0.43
-2.91
-6.38
-9.78
-12.92
-15.72
-18.30
-20.92
-23.89
-27.40
-31.46
-35.86
-40.29
-44.44
-48.19
-51.64
-55.12
-59.14
-64.29
-71.01
-79.33
-88.61
-97.47
-103.91
-105.82
-101.69
-91.09
-74.95
-55.21
-34.24
-14.14
3.70
18.69
30.79
40.24
47.25
51.98
54.60
55.35
54.62
52.86
50.54
48.06
45.72
43.71
42.17
41.19
40.80
41.02
41.81
43.09
44.63
46.15
47.30
47.76
47.33
45.96
43.80
41.08
38.00
34.72
31.24
27.52
23.53
19.25
14.77
10.18
5.59
1.10
-3.18
-7.14
-10.68
-13.84
-16.78
-19.81
-23.25
-27.31
-31.95
-36.92
-41.79
-46.23
-50.05
-53.41
-56.65
-60.31
-64.95
-70.99
-78.56
-87.23
-95.91
-102.85
-106.07
-103.84
-95.36
-80.99
-62.29
-41.42
-20.56
-1.38
15.22
28.98
40.01
48.50
54.62
58.49
60.31
60.42
59.25
57.32
55.08
52.84
50.75
48.85
47.16
45.77
44.91
44.78
45.49
46.91
48.64
50.11
50.80
50.36
48.72
46.06
42.73
39.08
35.41
31.82
28.29
24.62
20.60
16.07
11.03
5.67
0.33
-4.63
-9.00
-12.81
-16.29
-19.79
-23.62
-27.93
-32.63
-37.46
-42.10
-46.30
-50.01
-53.37
-56.77
-60.73
-65.81
-72.43
-80.54
-89.51
-97.97
-104.01
-105.63
-101.39
-90.88
-74.95
-55.47
-34.69
-14.63
3.40
18.82
31.62
42.00
50.10
55.99
59.69
61.36
61.33
60.08
58.11
55.83
53.51
51.33
49.44
48.02
47.29
47.40
48.35
49.91
51.63
52.92
53.30
52.49
50.53
47.75
44.57
41.36
38.28
35.24
31.91
27.96
23.18
17.64
11.68
5.79
0.41
-4.26
-8.30
-12.06
-15.98
-20.40
-25.39
-30.71
-35.91
-40.56
-44.42
-47.60
-50.54
-53.83
-58.11
-63.80
-71.04
-79.56
-88.57
-96.73
-102.35
-103.69
-99.48
-89.39
-74.16
-55.48
-35.43
-15.90
1.79
17.05
29.80
40.20
48.37
54.39
58.33
60.34
60.71
59.85
58.24
56.27
54.26
52.42
50.84
49.65
48.95
48.89
49.54
50.79
52.31
53.60
54.11
53.46
51.58
48.71
45.30
41.76
38.35
35.05
31.67
27.95
23.72
18.96
13.81
8.48
3.24
-1.69
-6.18
-10.26
-14.08
-17.88
-21.87
-26.16
-30.70
-35.37
-39.96
-44.32
-48.39
-52.22
-56.02
-60.15
-65.07
-71.23
-78.80
-87.42
-96.02
-102.86
-105.98
-103.76
-95.49
-81.64
-63.72
-43.79
-23.83
-5.31
10.98
24.83
36.30
45.51
52.53
57.41
60.24
61.25
60.75
59.16
56.92
54.49
52.27
50.53
49.44
49.04
49.29
50.09
51.28
52.63
53.83
54.49
54.23
52.82
50.27
46.84
42.93
38.93
35.09
31.45
27.85
24.10
20.02
15.56
10.81
5.95
1.22
-3.18
-7.18
-10.82
-14.30
-17.84
-21.63
-25.76
-30.16
-34.65
-39.07
-43.26
-47.21
-50.98
-54.79
-58.97
-63.97
-70.22
-77.86
-86.48
-94.90
-101.35
-103.87
-100.97
-92.12
-77.95
-60.07
-40.50
-21.08
-3.13
12.70
26.22
37.49
46.58
53.54
58.39
61.28
62.47
62.34
61.29
59.70
57.82
55.80
53.81
52.04
50.76
50.22
50.52
51.55
52.93
54.16
54.77
54.45
53.12
50.88
47.92
44.46
40.70
36.79
32.83
28.83
24.75
20.47
15.88
10.98
5.92
0.97
-3.58
-7.56
-11.03
-14.26
-17.64
-21.46
-25.83
-30.56
-35.30
-39.66
-43.43
-46.64
-49.63
-52.96
-57.29
-63.10
-70.53
-79.14
-87.80
-94.85
-98.48
-97.18
-90.25
-78.04
-61.83
-43.40
-24.57
-6.76
9.13
22.69
33.77
42.35
48.47
52.25
53.91
53.85
52.51
50.38
47.87
45.33
43.03
41.17
39.90
39.28
39.29
39.81
40.60
41.39
41.86
41.81
41.09
39.69
37.65
35.01
31.79
28.04
23.81
19.22
14.42
9.51
4.52
-0.57
-5.83
-11.28
-16.84
-22.35
-27.65
-32.58
-37.04
-41.03
-44.56
-47.75
-50.87
-54.35
-58.73
-64.54
-71.90
-80.30
-88.49
-94.63
-96.81
-93.60
-84.60
-70.51
-52.93
-33.83
-15.06
2.06
16.82
29.01
38.76
46.27
51.74
55.34
57.21
57.53
56.57
54.68
52.29
49.81
47.58
45.78
44.52
43.86
43.84
44.42
45.46
46.56
47.25
47.08
45.79
43.47
40.43
37.10
33.74
30.37
26.75
22.58
17.70
12.22
6.46
0.84
-4.39
-9.20
-13.77
-18.38
-23.22
-28.31
-33.53
-38.65
-43.50
-47.98
-52.09
-55.91
-59.65
-63.67
-68.45
-74.51
-82.09
-90.81
-99.50
-106.30
-109.12
-106.31
-97.23
-82.54
-63.93
-43.56
-23.42
-4.86
11.49
25.54
37.40
47.16
54.80
60.30
63.73
65.30
65.34
64.22
62.31
59.96
57.49
55.21
53.42
52.32
51.98
52.33
53.17
54.20
55.11
55.58
55.33
54.17
52.05
49.02
45.28
41.10
36.69
32.22
27.70
23.09
18.29
13.24
7.96
2.56
-2.69
-7.51
-11.66
-15.15
-18.27
-21.53
-25.43
-30.24
-35.81
-41.64
-47.12
-51.76
-55.50
-58.69
-62.03
-66.28
-72.06
-79.61
-88.58
-97.89
-105.84
-110.40
-109.77
-102.92
-90.04
-72.41
-52.04
-31.06
-11.15
6.62
21.82
34.38
44.42
52.08
57.58
61.16
63.09
63.63
63.02
61.47
59.28
56.80
54.44
52.58
51.46
51.15
51.55
52.42
53.49
54.47
55.11
55.20
54.55
53.07
50.76
47.77
44.31
40.56
36.63
32.52
28.14
23.50
18.71
13.97
9.45
5.25
1.32
-2.45
-6.15
-9.79
-13.35
-16.84
-20.40
-24.25
-28.62
-33.56
-38.85
-44.12
-48.94
-53.09
-56.64
-60.00
-63.82
-68.76
-75.32
-83.60
-93.08
-102.53
-110.16
-113.93
-112.12
-103.93
-89.70
-70.92
-49.73
-28.28
-8.25
9.41
24.39
36.69
46.39
53.57
58.30
60.80
61.40
60.59
58.87
56.69
54.38
52.18
50.24
48.65
47.48
46.82
46.71
47.17
48.07
49.15
49.99
50.18
49.35
47.39
44.47
40.93
37.18
33.45
29.74
25.82
21.39
16.30
10.63
4.75
-0.86
-5.87
-10.17
-13.99
-17.72
-21.77
-26.32
-31.29
-36.34
-41.01
-44.94
-48.03
-50.52
-52.95
-56.11
-60.73
-67.28
-75.65
-84.97
-93.63
-99.55
-100.73
-95.87
-84.83
-68.63
-49.22
-28.76
-9.16
8.36
23.23
35.32
44.70
51.44
55.65
57.56
57.55
56.13
53.86
51.19
48.46
45.89
43.59
41.67
40.28
39.56
39.64
40.49
41.93
43.55
44.84
45.32
44.68
42.87
40.08
36.64
32.84
28.84
24.63
20.11
15.20
9.91
4.44
-0.99
-6.14
-10.97
-15.55
-20.14
-24.95
-30.10
-35.52
-40.95
-46.05
-50.55
-54.40
-57.81
-61.27
-65.41
-70.85
-77.93
-86.48
-95.64
-103.85
-109.13
-109.53
-103.81
-91.82
-74.61
-54.17
-32.76
-12.37
5.75
21.11
33.73
43.85
51.70
57.39
61.00
62.65
62.59
61.18
58.84
56.00
53.02
50.21
47.85
46.16
45.28
45.28
46.02
47.18
48.33
49.01
48.86
47.72
45.62
42.66
38.99
34.73
29.97
24.81
19.37
13.80
8.22
2.70
-2.78
-8.31
-13.99
-19.87
-25.90
-31.88
-37.55
-42.66
-47.07
-50.89
-54.47
-58.41
-63.37
-69.87
-77.95
-86.92
-95.33
-101.19
-102.55
-98.10
-87.64
-72.13
-53.41
-33.50
-14.14
3.55
19.03
32.16
42.97
51.46
57.65
61.56
63.36
63.30
61.78
59.27
56.21
53.03
50.02
47.41
45.36
43.99
43.33
43.34
43.84
44.53
45.08
45.18
44.61
43.23
40.92
37.67
33.55
28.74
23.53
18.19
12.91
7.65
2.24
-3.53
-9.78
-16.39
-23.05
-29.33
-34.90
-39.63
-43.68
-47.40
-51.26
-55.76
-61.27
-68.04
-75.94
-84.36
-92.06
-97.32
-98.28
-93.58
-82.88
-67.05
-47.94
-27.78
-8.54
8.53
22.96
34.79
44.24
51.44
56.40
59.16
59.87
58.91
56.79
54.02
51.01
48.01
45.16
42.57
40.39
38.81
38.05
38.19
39.12
40.44
41.58
41.88
40.81
38.16
34.10
29.12
23.86
18.82
14.22
9.86
5.32
0.14
-5.88
-12.57
-19.49
-26.04
-31.77
-36.49
-40.33
-43.71
-47.16
-51.31
-56.67
-63.45
-71.39
-79.55
-86.37
-90.01
-88.83
-81.99
-69.71
-53.21
-34.36
-15.05
3.18
19.39
33.15
44.31
52.83
58.69
61.93
62.72
61.44
58.68
55.13
51.47
48.18
45.56
43.68
42.44
41.72
41.41
41.42
41.63
41.84
41.81
41.28
40.09
38.18
35.65
32.59
29.08
25.08
20.57
15.56
10.17
4.57
-1.06
-6.64
-12.20
-17.84
-23.65
-29.63
-35.62
-41.38
-46.66
-51.30
-55.33
-58.99
-62.69
-67.01
-72.51
-79.60
-88.20
-97.51
-105.94
-111.42
-111.93
-106.18
-94.07
-76.74
-56.21
-34.70
-14.03
4.64
20.79
34.32
45.29
53.76
59.80
63.51
65.16
65.08
63.73
61.56
59.04
56.50
54.15
52.13
50.55
49.56
49.30
49.84
51.00
52.36
53.34
53.37
52.11
49.54
45.94
41.77
37.43
33.16
28.98
24.69
20.02
14.77
8.89
2.56
-3.94
-10.23
-16.07
-21.37
-26.24
-30.89
-35.52
-40.27
-45.13
-49.93
-54.42
-58.27
-61.24
-63.22
-64.34
-65.03
-65.98
-67.95
-71.52
-76.71
-82.80
-88.32
-91.40
-90.33
-84.09
-72.66
-57.01
-38.73
-19.52
-0.83
16.38
31.64
44.75
55.72
64.58
71.38
76.13
78.88
79.70
78.79
76.46
73.15
69.37
65.59
62.21
59.52
57.70
56.75
56.47
56.53
56.46
55.86
54.45
52.21
49.28
45.86
42.12
38.08
33.72
28.97
23.84
18.42
12.85
7.26
1.76
-3.66
-9.00
-14.28
-19.47
-24.50
-29.27
-33.72
-37.83
-41.70
-45.53
-49.60
-54.25
-59.89
-66.79
-74.88
-83.49
-91.27
-96.36
-96.92
-91.75
-80.71
-64.88
-46.16
-26.66
-8.08
8.52
22.69
34.31
43.33
49.70
53.44
54.75
54.05
51.90
48.87
45.44
42.00
38.80
36.05
33.89
32.47
31.85
32.03
32.86
34.07
35.21
35.74
35.14
33.15
29.77
25.37
20.45
15.50
10.75
6.14
1.33
-4.02
-10.07
-16.65
-23.29
-29.42
-34.59
-38.74
-42.21
-45.65
-49.83
-55.34
-62.46
-70.91
-79.82
-87.79
-93.07
-93.98
-89.40
-79.13
-64.03
-45.73
-26.21
-7.26
9.87
24.51
36.47
45.79
52.56
56.93
59.03
59.12
57.57
54.84
51.48
48.05
44.99
42.59
40.90
39.79
39.10
38.69
38.49
38.49
38.60
38.58
38.11
36.82
34.48
31.04
26.67
21.64
16.28
10.86
5.54
0.30
-5.05
-10.74
-16.99
-23.84
-31.07
-38.27
-44.97
-50.83
-55.81
-60.16
-64.36
-69.00
-74.65
-81.71
-90.19
-99.53
-108.45
-115.11
-117.48
-113.96
-103.90
-87.88
-67.55
-45.11
-22.72
-2.05
15.93
30.87
42.88
52.24
59.27
64.31
67.62
69.46
70.02
69.49
68.04
65.87
63.21
60.37
57.77
55.79
54.73
54.66
55.34
56.32
57.04
57.07
56.18
54.37
51.77
48.50
44.67
40.31
35.39
29.91
23.96
17.68
11.27
4.91
-1.29
-7.36
-13.42
-19.64
-26.11
-32.74
-39.23
-45.22
-50.39
-54.65
-58.28
-61.88
-66.25
-72.19
-80.12
-89.75
-99.90
-108.60
-113.51
-112.61
-104.88
-90.61
-71.31
-49.21
-26.59
-5.26
13.73
29.91
43.26
53.88
61.96
67.64
71.19
72.87
73.04
72.05
70.21
67.83
65.16
62.46
60.02
58.16
57.13
57.04
57.70
58.74
59.57
59.66
58.69
56.56
53.45
49.67
45.53
41.19
36.64
31.73
26.30
20.32
13.96
7.53
1.34
-4.47
-10.04
-15.65
-21.56
-27.80
-34.10
-40.02
-45.18
-49.46
-53.08
-56.53
-60.39
-65.21
-71.42
-79.22
-88.35
-97.94
-106.39
-111.61
-111.56
-104.92
-91.57
-72.74
-50.58
-27.57
-5.75
13.54
29.77
42.89
53.04
60.34
64.86
66.71
66.15
63.67
59.91
55.57
51.25
47.33
43.98
41.20
38.98
37.41
36.59
36.55
37.06
37.61
37.51
36.18
33.37
29.31
24.55
19.73
15.19
10.83
6.24
0.87
-5.56
-12.94
-20.76
-28.33
-35.03
-40.57
-45.07
-49.01
-53.12
-58.17
-64.73
-72.92
-82.15
-91.04
-97.57
-99.63
-95.61
-85.03
-68.68
-48.44
-26.62
-5.34
13.88
30.29
43.62
53.86
61.03
65.17
66.45
65.25
62.16
57.91
53.16
48.44
44.11
40.34
37.23
34.82
33.17
32.33
32.28
32.83
33.63
34.15
33.82
32.16
29.04
24.61
19.36
13.81
8.37
3.08
-2.33
-8.29
-15.15
-22.94
-31.30
-39.60
-47.19
-53.67
-59.02
-63.61
-68.14
-73.39
-80.06
-88.52
-98.49
-108.86
-117.74
-122.76
-121.80
-113.71
-98.68
-78.24
-54.77
-30.69
-7.94
12.34
29.64
43.88
55.11
63.47
69.16
72.50
73.85
73.59
72.02
69.45
66.18
62.51
58.77
55.25
52.19
49.84
48.38
47.83
48.02
48.46
48.47
47.41
44.88
40.88
35.84
30.29
24.70
19.21
13.63
7.64
0.92
-6.59
-14.70
-22.98
-30.94
-38.17
-44.48
-49.96
-55.05
-60.41
-66.79
-74.69
-84.04
-93.93
-102.70
-108.21
-108.44
-102.12
-89.17
-70.75
-48.89
-25.93
-3.90
15.86
32.73
46.64
57.77
66.32
72.39
76.04
77.46
76.95
75.01
72.18
68.95
65.65
62.48
59.55
56.97
54.89
53.46
52.74
52.62
52.80
52.81
52.14
50.33
47.16
42.61
36.97
30.68
24.26
18.12
12.39
6.91
1.28
-4.93
-11.97
-19.72
-27.71
-35.31
-41.97
-47.48
-52.03
-56.20
-60.67
-66.14
-73.07
-81.50
-90.91
-100.09
-107.24
-110.30
-107.56
-98.17
-82.53
-62.21
-39.46
-16.55
4.75
23.43
39.11
51.76
61.45
68.20
72.02
73.04
71.65
68.46
64.22
59.65
55.28
51.36
47.97
45.12
42.90
41.49
41.00
41.29
41.88
42.05
41.05
38.48
34.41
29.38
24.06
18.95
14.14
9.37
4.15
-1.90
-8.89
-16.57
-24.44
-31.89
-38.45
-43.93
-48.46
-52.48
-56.66
-61.74
-68.29
-76.39
-85.40
-93.87
-99.75
-100.90
-95.82
-84.14
-66.80
-45.78
-23.46
-1.95
17.30
33.60
46.77
56.86
63.92
67.97
69.10
67.64
64.14
59.38
54.20
49.31
45.14
41.82
39.29
37.43
36.23
35.72
35.94
36.73
37.60
37.89
36.90
34.22
29.87
24.37
18.39
12.58
7.19
2.07
-3.26
-9.32
-16.42
-24.44
-32.89
-41.07
-48.36
-54.46
-59.43
-63.77
-68.18
-73.44
-80.22
-88.76
-98.67
-108.72
-116.94
-121.01
-118.90
-109.56
-93.30
-71.77
-47.44
-22.87
-0.10
19.73
36.27
49.71
60.38
68.54
74.34
77.82
79.08
78.37
76.10
72.80
69.04
65.33
62.02
59.35
57.46
56.42
56.27
56.94
58.17
59.47
60.22
59.84
57.99
54.68
50.30
45.40
40.45
35.66
30.90
25.82
20.11
13.70
6.83
-0.06
-6.46
-12.12
-17.04
-21.56
-26.14
-31.18
-36.83
-42.94
-49.11
-54.84
-59.77
-63.87
-67.40
-70.96
-75.32
-81.20
-89.06
-98.75
-109.30
-118.88
-125.07
-125.52
-118.71
-104.47
-84.08
-59.87
-34.49
-10.17
11.62
30.28
45.72
58.12
67.66
74.48
78.75
80.71
80.76
79.33
76.93
73.99
70.89
67.88
65.17
62.93
61.33
60.55
60.63
61.44
62.61
63.57
63.73
62.65
60.18
56.50
52.05
47.28
42.58
38.06
33.61
28.95
23.78
17.98
11.61
4.97
-1.55
-7.57
-12.90
-17.57
-21.83
-26.05
-30.58
-35.56
-40.91
-46.32
-51.40
-55.85
-59.59
-62.90
-66.37
-70.76
-76.84
-84.98
-94.93
-105.48
-114.60
-119.82
-118.88
-110.56
-95.03
-73.92
-49.72
-25.09
-2.15
17.84
34.40
47.51
57.29
63.84
67.27
67.79
65.87
62.24
57.74
53.17
49.11
45.83
43.34
41.46
40.05
39.07
38.61
38.81
39.59
40.64
41.39
41.19
39.55
36.32
31.79
26.51
21.11
16.01
11.33
6.83
2.09
-3.31
-9.59
-16.64
-24.12
-31.45
-38.13
-43.78
-48.38
-52.19
-55.76
-59.83
-65.09
-72.02
-80.55
-89.86
-98.34
-103.87
-104.33
-98.32
-85.64
-67.40
-45.70
-22.97
-1.37
17.69
33.52
46.07
55.52
62.08
65.93
67.21
66.18
63.30
59.22
54.65
50.26
46.48
43.53
41.42
40.08
39.46
39.48
40.05
40.90
41.65
41.87
41.22
39.52
36.84
33.35
29.22
24.56
19.39
13.75
7.73
1.52
-4.70
-10.80
-16.82
-22.95
-29.38
-36.18
-43.21
-50.09
-56.36
-61.71
-66.11
-69.92
-73.81
-78.61
-85.01
-93.24
-102.80
-112.32
-119.73
-122.71
-119.38
-108.92
-91.87
-69.97
-45.66
-21.38
1.02
20.47
36.62
49.57
59.59
66.93
71.78
74.32
74.73
73.30
70.44
66.70
62.64
58.77
55.45
52.84
51.05
50.14
50.15
51.09
52.75
54.69
56.26
56.79
55.86
53.40
49.72
45.35
40.80
36.33
31.88
27.18
21.93
16.02
9.58
3.01
-3.25
-8.87
-13.73
-18.02
-22.14
-26.50
-31.39
-36.85
-42.65
-48.37
-53.65
-58.25
-62.25
-66.02
-70.13
-75.26
-82.01
-90.64
-100.82
-111.42
-120.48
-125.59
-124.60
-116.28
-100.85
-79.87
-55.76
-31.05
-7.70
13.12
30.94
45.72
57.53
66.45
72.59
76.17
77.59
77.31
75.87
73.68
71.10
68.35
65.65
63.20
61.29
60.22
60.13
60.96
62.38
63.79
64.57
64.24
62.60
59.75
56.03
51.80
47.39
42.92
38.36
33.50
28.12
22.11
15.53
8.65
1.85
-4.51
-10.25
-15.43
-20.31
-25.20
-30.32
-35.64
-40.97
-45.98
-50.48
-54.43
-58.09
-61.93
-66.57
-72.61
-80.44
-89.98
-100.35
-109.85
-116.18
-117.05
-110.94
-97.64
-78.41
-55.56
-31.73
-9.11
10.93
27.90
41.81
52.85
61.09
66.56
69.27
69.48
67.70
64.66
61.09
57.55
54.31
51.40
48.75
46.42
44.64
43.70
43.79
44.75
46.03
46.88
46.56
44.67
41.22
36.56
31.26
25.84
20.57
15.43
10.17
4.42
-2.08
-9.36
-17.10
-24.74
-31.67
-37.48
-42.13
-45.93
-49.49
-53.52
-58.62
-65.13
-72.98
-81.48
-89.33
-94.72
-95.74
-90.96
-79.95
-63.48
-43.38
-21.91
-1.14
17.53
33.43
46.43
56.55
63.76
67.99
69.23
67.78
64.25
59.51
54.42
49.72
45.82
42.89
40.92
39.83
39.50
39.81
40.54
41.39
42.02
42.09
41.41
39.88
37.55
34.50
30.78
26.40
21.34
15.65
9.45
2.94
-3.62
-10.06
-16.33
-22.51
-28.75
-35.10
-41.49
-47.68
-53.39
-58.42
-62.79
-66.74
-70.73
-75.32
-81.09
-88.44
-97.38
-107.20
-116.42
-122.92
-124.48
-119.44
-107.28
-88.92
-66.38
-42.16
-18.56
2.86
21.38
36.91
49.65
59.83
67.54
72.84
75.80
76.62
75.62
73.29
70.16
66.74
63.45
60.64
58.55
57.31
57.00
57.56
58.78
60.23
61.38
61.68
60.75
58.49
55.07
50.85
46.24
41.53
36.83
32.08
27.07
21.62
15.65
9.25
2.70
-3.62
-9.35
-14.35
-18.74
-22.92
-27.37
-32.40
-38.01
-43.90
-49.54
-54.51
-58.64
-62.21
-65.82
-70.29
-76.37
-84.46
-94.32
-104.81
-114.02
-119.58
-119.31
-111.88
-97.34
-77.10
-53.52
-29.16
-6.15
14.21
31.44
45.58
56.92
65.71
72.12
76.31
78.44
78.80
77.70
75.53
72.63
69.38
66.09
63.12
60.76
59.30
58.88
59.43
60.65
61.99
62.85
62.68
61.17
58.30
54.36
49.79
45.04
40.40
35.93
31.43
26.62
21.23
15.16
8.61
1.97
-4.30
-9.81
-14.50
-18.60
-22.58
-26.91
-31.82
-37.24
-42.77
-47.98
-52.53
-56.37
-59.77
-63.22
-67.34
-72.79
-80.01
-88.99
-98.97
-108.28
-114.65
-115.71
-109.88
-96.90
-78.01
-55.48
-31.89
-9.39
10.65
27.66
41.52
52.30
60.13
65.15
67.63
67.95
66.60
64.07
60.79
57.13
53.40
49.94
47.06
45.04
44.09
44.22
45.19
46.57
47.76
48.20
47.53
45.68
42.83
39.32
35.46
31.45
27.29
22.88
18.10
12.90
7.38
1.72
-3.90
-9.36
-14.71
-20.06
-25.56
-31.19
-36.79
-42.03
-46.60
-50.33
-53.34
-56.07
-59.17
-63.36
-69.16
-76.74
-85.63
-94.63
-101.88
-105.26
-102.89
-93.83
-78.42
-58.23
-35.58
-12.86
8.04
26.06
40.87
52.51
61.17
67.03
70.33
71.48
71.03
69.64
67.84
65.94
64.08
62.27
60.69
59.69
59.77
61.34
64.42
68.54
72.74
75.95
77.42
77.02
75.32
73.32
71.93
71.56
71.88
72.01
70.90
67.86
62.87
56.61
50.32
45.40
43.08
43.88
47.12
50.60
50.73
43.36
25.14
-5.10
-45.64
-92.28
-139.67
-183.04
-219.52
-248.45
-270.69
-287.51
-299.43
-305.75
-304.87
-295.02
-275.22
-245.92
-209.10
-167.87
-125.65
-85.32
-48.73
-16.71
10.57
33.16
51.11
64.55
73.93
80.08
84.11
86.97
89.16
90.67
91.13
90.24
88.09
85.23
82.52
80.79
80.52
81.69
83.78
86.00
87.50
87.64
86.15
83.12
78.92
74.03
68.89
63.77
58.77
53.82
48.75
43.40
37.62
31.40
24.85
18.23
11.88
6.15
1.21
-3.03
-6.88
-10.85
-15.40
-20.75
-26.85
-33.32
-39.66
-45.46
-50.52
-54.99
-59.28
-63.99
-69.75
-77.10
-86.19
-96.53
-106.87
-115.19
-119.19
-116.89
-107.33
-90.96
-69.49
-45.41
-21.16
1.35
21.07
37.61
50.96
61.27
68.67
73.35
75.64
76.03
75.07
73.25
70.92
68.28
65.44
62.52
59.77
57.56
56.24
56.02
56.82
58.26
59.72
60.55
60.25
58.65
55.86
52.22
48.11
43.86
39.58
35.20
30.52
25.30
19.45
13.05
6.43
0.03
-5.76
-10.76
-15.13
-19.26
-23.62
-28.50
-33.86
-39.39
-44.65
-49.32
-53.32
-56.90
-60.49
-64.67
-70.00
-76.85
-85.21
-94.43
-103.05
-109.02
-110.11
-104.65
-92.20
-73.73
-51.41
-27.91
-5.60
14.00
30.25
43.23
53.23
60.48
65.07
67.04
66.56
64.05
60.19
55.73
51.38
47.64
44.73
42.66
41.33
40.64
40.53
40.93
41.69
42.50
42.97
42.69
41.43
39.18
36.14
32.55
28.61
24.38
19.81
14.84
9.50
3.92
-1.75
-7.37
-12.93
-18.52
-24.25
-30.18
-36.22
-42.08
-47.39
-51.84
-55.40
-58.39
-61.47
-65.48
-71.16
-78.83
-88.11
-97.78
-105.89
-110.18
-108.68
-100.32
-85.36
-65.31
-42.53
-19.47
1.88
20.41
35.71
47.88
57.13
63.60
67.44
68.83
68.15
65.94
62.83
59.37
55.94
52.74
49.89
47.53
45.85
45.08
45.33
46.48
48.16
49.75
50.66
50.45
48.98
46.42
43.12
39.43
35.57
31.57
27.29
22.55
17.19
11.22
4.80
-1.72
-7.97
-13.65
-18.67
-23.18
-27.51
-32.01
-36.90
-42.12
-47.41
-52.40
-56.83
-60.68
-64.22
-67.99
-72.67
-78.94
-87.15
-97.09
-107.73
-117.17
-123.04
-123.10
-115.99
-101.71
-81.67
-58.17
-33.74
-10.48
10.26
27.89
42.30
53.64
62.11
67.96
71.41
72.76
72.33
70.52
67.77
64.57
61.40
58.60
56.42
54.98
54.32
54.42
55.18
56.37
57.58
58.32
58.13
56.73
54.17
50.74
46.85
42.84
38.87
34.87
30.61
25.84
20.37
14.26
7.75
1.25
-4.82
-10.21
-14.94
-19.30
-23.72
-28.54
-33.82
-39.34
-44.69
-49.50
-53.62
-57.24
-60.89
-65.24
-70.99
-78.55
-87.85
-98.07
-107.58
-114.22
-115.76
-110.64
-98.50
-80.34
-58.21
-34.58
-11.66
9.09
26.95
41.78
53.65
62.63
68.78
72.19
73.13
72.03
69.49
66.14
62.54
59.12
56.16
53.79
52.04
50.89
50.31
50.21
50.49
50.90
51.13
50.82
49.64
47.43
44.18
40.10
35.44
30.48
25.39
20.25
15.01
9.61
3.92
-2.11
-8.53
-15.26
-22.11
-28.79
-34.95
-40.33
-44.86
-48.77
-52.56
-56.90
-62.42
-69.53
-78.12
-87.44
-96.03
-101.95
-103.25
-98.51
-87.36
-70.67
-50.31
-28.59
-7.63
11.09
26.86
39.48
49.03
55.58
59.19
60.03
58.48
55.19
50.93
46.45
42.31
38.79
35.98
33.84
32.32
31.44
31.29
31.80
32.80
33.84
34.34
33.76
31.75
28.33
23.87
18.91
13.89
9.00
4.11
-1.17
-7.18
-14.07
-21.67
-29.53
-37.05
-43.76
-49.43
-54.17
-58.46
-62.96
-68.38
-75.22
-83.46
-92.40
-100.61
-106.15
-107.10
-102.10
-90.82
-74.08
-53.61
-31.56
-9.94
9.81
26.89
41.05
52.29
60.71
66.44
69.60
70.47
69.44
67.05
63.86
60.37
56.99
53.99
51.58
49.90
49.03
48.93
49.44
50.22
50.91
51.12
50.62
49.28
47.10
44.15
40.48
36.15
31.22
25.75
19.87
13.73
7.50
1.34
-4.67
-10.57
-16.49
-22.56
-28.82
-35.17
-41.34
-47.00
-51.92
-56.11
-59.83
-63.62
-68.13
-74.00
-81.57
-90.72
-100.60
-109.64
-115.82
-117.11
-112.08
-100.41
-82.96
-61.59
-38.53
-15.88
4.84
22.82
37.80
49.89
59.27
66.16
70.76
73.27
74.00
73.29
71.58
69.25
66.64
63.96
61.41
59.15
57.43
56.50
56.55
57.53
59.13
60.74
61.65
61.30
59.45
56.22
52.01
47.31
42.54
37.87
33.25
28.48
23.33
17.71
11.67
5.48
-0.51
-5.97
-10.76
-15.00
-19.07
-23.37
-28.17
-33.40
-38.73
-43.68
-47.97
-51.66
-55.15
-59.14
-64.35
-71.31
-80.15
-90.34
-100.65
-109.20
-113.82
-112.63
-104.67
-90.29
-71.10
-49.50
-27.98
-8.48
7.91
20.89
30.71
37.83
42.66
45.53
46.63
46.16
44.33
41.47
37.97
34.28
30.78
27.76
25.40
23.77
22.87
22.71
23.29
24.61
26.60
29.12
31.95
34.77
37.29
39.23
40.50
41.14
41.33
41.27
41.02
40.45
39.25
37.01
33.47
28.59
22.61
16.01
9.35
3.11
-2.49
-7.47
-12.11
-16.89
-22.38
-29.08
-37.18
-46.33
-55.51
-63.11
-67.29
-66.59
-60.39
-49.18
-34.38
-17.94
-1.69
12.97
25.26
34.88
41.74
45.83
47.22
46.12
43.00
38.55
33.55
28.65
24.26
20.53
17.43
14.88
12.83
11.27
10.15
9.35
8.65
7.81
6.63
5.02
2.95
0.43
-2.58
-6.10
-10.18
-14.79
-19.75
-24.88
-29.99
-35.00
-39.97
-45.08
-50.54
-56.58
-63.41
-71.14
-79.66
-88.41
-96.27
-101.57
-102.48
-97.58
-86.42
-69.84
-49.72
-28.41
-8.05
10.04
25.39
38.16
48.72
57.24
63.68
67.87
69.73
69.46
67.50
64.39
60.66
56.67
52.64
48.72
45.06
41.86
39.26
37.29
35.77
34.39
32.76
30.60
27.75
24.23
20.08
15.28
9.80
3.60
-3.21
-10.36
-17.47
-24.23
-30.50
-36.42
-42.35
-48.79
-56.23
-65.02
-75.10
-85.86
-95.98
-103.58
-106.67
-103.75
-94.31
-79.09
-59.81
-38.65
-17.63
1.83
18.98
33.62
45.81
55.69
63.35
68.89
72.40
74.02
73.96
72.48
69.87
66.45
62.60
58.70
55.13
52.23
50.19
49.01
48.46
48.06
47.29
45.64
42.85
38.94
34.16
28.93
23.61
18.34
13.03
7.36
0.98
-6.28
-14.27
-22.55
-30.54
-37.73
-43.96
-49.42
-54.66
-60.41
-67.33
-75.76
-85.40
-95.20
-103.39
-107.87
-106.73
-98.93
-84.65
-65.28
-43.06
-20.40
0.72
19.11
34.37
46.65
56.31
63.63
68.79
71.87
72.94
72.19
69.93
66.53
62.41
57.95
53.53
49.53
46.28
43.99
42.63
41.93
41.44
40.67
39.25
37.06
34.16
30.72
26.83
22.52
17.69
12.26
6.26
-0.12
-6.56
-12.70
-18.29
-23.27
-27.85
-32.55
-38.07
-45.13
-54.17
-65.02
-76.66
-87.20
-94.33
-95.85
-90.48
-78.23
-60.48
-39.46
-17.64
2.96
21.08
36.21
48.30
57.50
63.99
68.00
69.87
70.12
69.31
67.89
66.03
63.58
60.17
55.53
49.70
43.17
36.75
31.25
27.07
24.03
21.40
18.21
13.66
7.50
0.11
-7.73
-15.24
-21.94
-27.85
-33.36
-38.99
-45.07
-51.61
-58.26
-64.54
-70.05
-74.66
-78.52
-82.05
-85.73
-90.11
-95.61
-102.41
-110.20
-118.04
-124.30
-126.91
-124.01
-114.47
-98.43
-77.25
-53.16
-28.52
-5.28
15.39
33.09
47.89
60.05
69.81
77.28
82.53
85.61
86.66
85.96
83.91
81.00
77.70
74.41
71.36
68.74
66.68
65.29
64.63
64.55
64.71
64.57
63.60
61.48
58.23
54.17
49.75
45.30
40.96
36.58
31.86
26.56
20.59
14.12
7.48
1.12
-4.66
-9.81
-14.55
-19.35
-24.66
-30.74
-37.49
-44.47
-51.10
-56.89
-61.72
-65.83
-69.79
-74.32
-80.14
-87.70
-96.99
-107.33
-117.19
-124.44
-126.80
-122.52
-110.99
-93.02
-70.56
-46.12
-22.03
0.07
19.37
35.69
49.14
59.92
68.14
73.94
77.55
79.29
79.55
78.66
76.91
74.49
71.59
68.41
65.26
62.50
60.52
59.57
59.61
60.28
61.02
61.24
60.61
59.12
57.05
54.72
52.30
49.66
46.52
42.59
37.84
32.53
27.09
21.94
17.26
12.94
8.68
4.17
-0.74
-5.94
-11.12
-15.94
-20.16
-23.82
-27.23
-30.85
-35.11
-40.21
-45.99
-52.06
-57.90
-63.11
-67.56
-71.47
-75.40
-80.04
-86.12
-94.08
-103.79
-114.27
-123.67
-129.61
-129.78
-122.71
-108.29
-87.89
-63.84
-38.75
-14.79
6.67
25.00
40.08
51.97
60.84
66.90
70.47
71.99
71.93
70.68
68.53
65.68
62.33
58.70
55.09
51.88
49.44
48.07
47.85
48.64
49.96
51.16
51.55
50.69
48.49
45.24
41.41
37.42
33.46
29.42
25.00
19.94
14.21
8.06
1.91
-3.84
-9.05
-13.88
-18.71
-23.88
-29.54
-35.48
-41.28
-46.48
-50.81
-54.36
-57.53
-60.96
-65.33
-71.21
-78.82
-87.81
-97.06
-104.78
-108.77
-107.08
-98.61
-83.56
-63.41
-40.47
-17.20
4.37
23.01
38.22
50.04
58.71
64.49
67.61
68.32
66.89
63.74
59.37
54.37
49.32
44.70
40.85
37.96
36.10
35.20
35.16
35.76
36.66
37.46
37.74
37.18
35.60
33.02
29.59
25.52
21.00
16.19
11.19
6.07
0.85
-4.47
-9.99
-15.81
-22.03
-28.65
-35.51
-42.32
-48.72
-54.42
-59.29
-63.49
-67.45
-71.85
-77.40
-84.67
-93.75
-103.97
-113.78
-121.01
-123.30
-118.91
-107.23
-89.07
-66.44
-41.89
-17.80
4.11
22.98
38.63
51.21
60.98
68.16
72.93
75.52
76.20
75.30
73.14
70.05
66.32
62.30
58.36
54.85
52.05
50.12
49.06
48.72
48.85
49.10
49.14
48.66
47.43
45.28
42.14
38.08
33.23
27.85
22.20
16.50
10.81
5.06
-0.94
-7.39
-14.35
-21.70
-29.17
-36.40
-43.07
-49.03
-54.27
-59.01
-63.66
-68.79
-75.02
-82.80
-92.07
-101.92
-110.59
-115.67
-114.94
-107.03
-92.02
-71.42
-47.65
-23.25
-0.21
20.28
37.75
52.11
63.34
71.46
76.57
78.98
79.20
77.82
75.35
72.13
68.36
64.24
60.02
56.10
52.89
50.71
49.65
49.51
49.90
50.29
50.23
49.43
47.74
45.16
41.74
37.57
32.82
27.69
22.38
17.01
11.57
5.94
-0.08
-6.66
-13.80
-21.29
-28.74
-35.72
-41.88
-47.14
-51.70
-56.03
-60.80
-66.67
-74.13
-83.20
-93.21
-102.68
-109.52
-111.53
-107.02
-95.45
-77.65
-55.56
-31.72
-8.44
12.62
30.59
45.26
56.70
65.03
70.30
72.61
72.24
69.68
65.58
60.60
55.28
49.97
44.96
40.48
36.85
34.34
33.10
33.00
33.61
34.29
34.35
33.32
31.05
27.76
23.83
19.69
15.54
11.35
6.79
1.48
-4.84
-12.15
-20.07
-28.02
-35.45
-42.06
-47.92
-53.46
-59.31
-66.10
-74.20
-83.47
-93.02
-101.24
-106.00
-105.25
-97.69
-83.25
-63.24
-39.99
-16.09
6.25
25.71
41.81
54.62
64.34
71.06
74.74
75.44
73.46
69.46
64.32
58.92
53.91
49.62
46.05
43.10
40.70
38.91
37.86
37.62
38.04
38.68
38.93
38.13
35.89
32.15
27.24
21.74
16.19
10.95
5.96
0.87
-4.82
-11.49
-19.20
-27.62
-36.16
-44.17
-51.18
-57.06
-62.03
-66.67
-71.73
-78.00
-86.00
-95.68
-106.16
-115.67
-121.88
-122.51
-116.06
-102.33
-82.51
-58.82
-33.79
-9.69
11.96
30.43
45.59
57.67
66.98
73.75
78.15
80.31
80.48
78.99
76.33
72.96
69.27
65.55
61.98
58.79
56.29
54.77
54.41
55.02
56.08
56.86
56.68
55.14
52.30
48.48
44.16
39.70
35.18
30.50
25.44
19.82
13.67
7.15
0.49
-6.15
-12.71
-19.23
-25.77
-32.29
-38.66
-44.65
-50.05
-54.75
-58.87
-62.73
-66.86
-71.94
-78.63
-87.24
-97.47
-108.06
-116.91
-121.51
-119.65
-110.22
-93.59
-71.57
-46.76
-21.78
1.35
21.51
38.37
52.02
62.72
70.66
75.98
78.87
79.62
78.63
76.35
73.25
69.73
66.10
62.60
59.42
56.78
54.89
53.89
53.74
54.19
54.77
54.98
54.42
52.90
50.46
47.20
43.27
38.72
33.54
27.76
21.46
14.85
8.19
1.71
-4.46
-10.31
-16.00
-21.73
-27.63
-33.71
-39.79
-45.53
-50.65
-55.05
-58.92
-62.78
-67.34
-73.26
-80.92
-90.07
-99.66
-107.87
-112.44
-111.27
-103.16
-88.21
-67.87
-44.52
-20.74
1.39
20.59
36.47
49.14
58.93
66.08
70.71
72.92
72.87
70.90
67.52
63.35
58.95
54.77
51.11
48.15
46.05
44.90
44.72
45.37
46.52
47.74
48.61
48.85
48.32
47.01
44.92
42.04
38.42
34.20
29.63
25.04
20.67
16.58
12.62
8.54
4.20
-0.41
-5.03
-9.34
-12.99
-15.81
-17.73
-18.85
-19.29
-19.29
-19.16
-19.38
-20.46
-22.66
-25.75
-28.75
-30.18
-28.39
-22.19
-11.32
3.46
20.61
38.40
55.37
70.61
83.72
94.54
102.97
108.88
112.24
113.19
112.15
109.71
106.50
103.09
99.87
97.15
95.14
94.01
93.84
94.53
95.76
96.96
97.42
96.49
93.70
88.86
82.03
73.31
62.84
50.74
37.22
22.61
7.39
-7.85
-22.39
-35.37
-45.83
-52.81
-55.72
-54.65
-50.57
-45.20
-40.49
-37.95
-38.17
-40.73
-44.66
-49.04
-53.69
-59.30
-67.07
-78.11
-92.74
-110.22
-128.88
-146.77
-162.19
-174.25
-182.75
-188.07
-190.87
-192.00
-192.50
-193.37
-195.39
-198.65
-202.59
-206.04
-207.73
-206.68
-202.33
-194.45
-182.85
-167.17
-146.95
-121.96
-92.59
-60.07
-26.37
6.28
35.95
61.48
82.41
98.63
109.91
115.66
115.08
107.57
93.15
72.44
46.39
15.71
-19.29
-58.41
-100.91
-144.70
-186.15
-220.42
-242.66
-249.33
-239.28
-214.23
-178.32
-137.03
-95.78
-58.59
-27.37
-2.01
19.05
37.93
56.58
76.37
98.06
121.83
147.18
172.74
196.17
214.60
225.35
227.02
220.25
207.63
192.87
179.48
169.55
163.21
158.83
153.64
144.59
129.14
105.83
74.75
37.70
-2.00
-40.17
-72.61
-96.14
-109.18
-112.01
-106.49
-95.48
-82.15
-69.30
-59.02
-52.56
-50.55
-53.26
-60.82
-73.16
-89.73
-109.32
-130.14
-150.18
-167.69
-181.37
-190.27
-193.54
-190.25
-179.52
-161.03
-135.40
-104.44
-70.73
-36.95
-5.09
23.93
50.06
73.60
94.46
111.77
124.09
129.97
128.64
120.47
107.11
91.17
75.77
63.79
57.29
57.08
62.52
71.84
82.57
92.11
98.07
98.46
91.73
76.87
53.80
23.75
-10.51
-45.18
-76.28
-100.97
-118.34
-129.62
-137.66
-146.12
-158.57
-177.55
-203.72
-235.21
-267.54
-294.47
-309.87
-309.81
-293.87
-265.16
-228.77
-189.60
-150.72
-112.85
-75.02
-35.61
6.57
51.69
98.48
144.05
184.20
214.20
230.04
229.69
213.70
184.68
146.35
102.48
56.65
12.57
-25.49
-52.96
-65.85
-62.16
-42.54
-9.97
31.33
77.36
125.03
172.18
217.20
258.42
293.97
322.02
341.28
351.40
353.14
348.14
338.32
325.27
309.57
290.59
266.83
236.78
200.09
158.47
115.92
78.06
50.70
38.08
41.51
58.86
85.17
113.97
138.91
155.16
160.03
153.10
135.61
109.91
78.85
45.39
12.29
-18.10
-44.15
-65.07
-80.95
-92.55
-101.04
-107.61
-113.23
-118.45
-123.41
-127.71
-130.47
-130.47
-126.38
-117.28
-103.11
-84.97
-65.02
-45.92
-30.15
-19.39
-14.25
-14.33
-18.53
-25.47
-33.78
-42.35
-50.43
-57.85
-64.91
-72.30
-80.61
-90.01
-99.91
-109.01
-115.63
-118.26
-116.04
-109.08
-98.50
-86.17
-74.15
-64.19
-57.20
-53.12
-51.05
-49.63
-47.51
-43.66
-37.61
-29.49
-19.88
-9.70
0.06
8.62
15.65
21.33
26.30
31.31
36.91
43.13
49.56
55.51
60.39
64.01
66.56
68.56
70.55
72.88
75.67
78.76
81.77
84.06
84.87
83.43
79.36
72.89
64.90
56.47
48.26
39.91
30.01
16.88
-0.30
-20.60
-41.24
-58.40
-68.67
-70.30
-63.63
-50.66
-34.00
-15.90
2.28
19.91
36.66
52.02
65.18
75.28
81.84
85.09
85.93
85.61
85.20
85.27
85.76
86.32
86.63
86.73
87.03
88.05
90.22
93.60
97.88
102.44
106.31
108.28
107.04
101.40
90.69
75.04
55.39
33.26
10.27
-12.29
-33.57
-53.13
-70.63
-85.73
-98.05
-107.42
-113.92
-117.96
-120.05
-120.54
-119.47
-116.76
-112.40
-106.68
-100.26
-93.95
-88.42
-84.06
-80.96
-79.11
-78.58
-79.62
-82.50
-87.47
-94.62
-103.94
-115.41
-128.83
-143.80
-159.54
-175.09
-189.72
-203.39
-216.92
-231.47
-247.54
-264.05
-277.91
-284.79
-280.43
-262.16
-229.59
-184.47
-129.97
-69.96
-8.69
49.24
99.15
136.90
160.05
168.83
166.30
157.49
147.77
141.09
139.03
140.79
143.95
145.71
143.83
137.31
126.34
112.12
96.24
80.25
65.32
52.15
40.96
31.57
23.45
15.74
7.60
-1.49
-11.22
-20.28
-26.61
-28.05
-23.12
-11.67
5.11
25.00
45.50
64.44
80.42
92.77
101.47
106.77
109.09
108.87
106.55
102.56
97.35
91.40
85.24
79.50
74.87
72.02
71.48
73.42
77.53
83.02
88.94
94.41
99.04
102.93
106.47
109.86
112.67
113.76
111.63
105.18
94.35
80.52
66.19
54.19
46.62
44.14
45.67
48.77
50.30
47.21
37.10
18.71
-7.76
-40.46
-75.92
-109.66
-137.37
-156.27
-165.83
-167.40
-162.87
-152.95
-136.33
-110.25
-72.38
-22.85
34.45
92.24
141.85
175.79
190.13
185.43
166.18
139.00
110.40
85.00
64.68
49.10
36.77
26.29
16.95
8.62
1.03
-6.62
-15.52
-26.60
-39.71
-53.50
-65.82
-74.65
-79.03
-79.33
-76.97
-73.75
-71.06
-69.50
-68.92
-68.77
-68.55
-68.27
-68.42
-69.81
-73.13
-78.61
-85.77
-93.53
-100.53
-105.52
-107.73
-107.05
-103.94
-99.29
-93.99
-88.75
-83.87
-79.35
-74.89
-70.25
-65.36
-60.68
-57.14
-56.17
-59.25
-67.52
-81.33
-100.09
-122.51
-147.00
-172.33
-198.06
-224.61
-253.01
-284.38
-319.37
-357.81
-398.40
-438.87
-476.17
-507.06
-528.82
-539.87
-540.18
-531.11
-514.87
-493.78
-469.70
-443.69
-416.20
-387.25
-356.86
-325.01
-291.67
-256.73
-220.05
-181.69
-142.14
-102.44
-63.92
-27.93
4.62
33.55
59.34
82.89
105.05
126.30
146.62
165.61
182.79
197.98
211.45
223.89
236.26
249.56
264.63
281.95
301.35
321.75
341.10
356.69
365.91
367.08
360.09
346.49
329.16
310.98
293.86
278.40
264.32
251.05
238.51
226.95
216.67
208.01
200.80
194.32
187.66
180.19
171.77
162.91
154.26
146.16
139.29
133.78
129.05
124.16
118.40
111.30
103.29
94.83
86.14
79.27
75.68
75.53
77.90
81.92
86.80
93.63
103.27
115.71
134.22
160.29
192.14
225.28
255.19
277.95
294.37
305.99
313.80
324.79
343.79
370.72
401.34
431.05
455.47
476.82
497.66
519.07
549.44
593.63
649.18
706.83
755.88
786.19
798.13
795.78
730.82
583.14
369.95
138.29
-67.00
-205.81
-296.80
-358.42
-402.44
-435.78
-456.02
-459.47
-448.21
-430.07
-413.67
-407.13
-409.32
-417.51
-429.37
-436.28
-431.66
-414.53
-389.35
-362.15
-339.44
-320.91
-304.97
-290.42
-272.62
-248.81
-220.28
-191.51
-167.18
-151.17
-142.20
-137.84
-136.04
-133.40
-127.67
-118.73
-108.14
-97.73
-89.35
-82.72
-77.35
-73.12
-69.52
-66.37
-64.02
-63.03
-63.59
-65.50
-67.62
-68.91
-68.80
-67.31
-64.84
-61.99
-59.19
-56.53
-53.73
-50.20
-45.39
-39.14
-31.93
-24.99
-19.99
-18.60
-21.79
-29.55
-40.80
-53.85
-67.09
-79.53
-90.94
-101.69
-112.17
-122.33
-131.43
-138.11
-140.54
-136.78
-125.20
-104.97
-76.54
-41.83
-4.03
32.95
65.22
89.48
103.49
106.30
98.30
81.26
57.99
31.90
6.40
-15.51
-31.50
-39.85
-39.56
-30.71
-15.06
3.63
20.11
29.21
27.86
16.37
-1.73
-21.34
-38.12
-50.28
-58.69
-65.66
-73.20
-81.70
-89.97
-96.16
-99.13
-99.19
-97.84
-96.79
-96.82
-97.27
-96.26
-91.62
-81.69
-65.90
-44.89
-20.14
6.42
32.83
57.45
79.18
97.58
112.64
124.53
133.13
137.98
138.53
134.58
126.86
116.87
106.46
96.99
88.87
81.51
73.88
65.19
55.19
44.14
32.37
20.02
7.05
-6.51
-20.39
-33.98
-46.61
-57.80
-67.33
-75.14
-81.12
-85.09
-86.96
-87.13
-86.64
-86.98
-89.57
-95.05
-102.93
-111.76
-119.83
-126.09
-130.75
-135.32
-141.92
-152.21
-166.33
-182.40
-196.90
-205.63
-205.02
-193.28
-170.96
-140.69
-106.62
-73.32
-44.75
-23.29
-9.01
0.50
9.68
23.56
45.70
76.31
111.29
143.34
164.68
170.20
159.33
135.69
104.84
71.58
38.50
6.35
-24.35
-52.04
-74.12
-88.36
-94.57
-95.16
-94.15
-95.24
-99.96
-107.22
-114.26
-118.13
-117.02
-110.65
-100.00
-86.62
-72.13
-57.84
-44.66
-33.18
-23.64
-15.96
-9.82
-4.74
-0.23
4.11
8.48
13.02
17.88
23.45
30.27
38.78
49.01
60.41
71.80
81.77
89.01
92.61
92.21
88.01
80.68
71.35
61.38
52.19
44.78
39.43
35.63
32.37
28.77
24.67
20.90
19.22
21.85
30.91
47.88
73.24
106.27
145.00
186.52
227.54
265.09
297.05
322.23
340.01
349.66
350.08
339.88
318.06
284.60
240.72
188.65
131.29
71.96
14.33
-37.61
-79.88
-109.22
-123.76
-123.48
-110.05
-86.32
-55.72
-21.99
11.06
39.80
61.27
73.92
77.94
75.16
68.41
60.55
53.83
49.46
47.61
47.60
48.06
47.35
43.95
37.10
27.04
15.05
2.95
-7.55
-15.36
-20.16
-22.14
-21.64
-18.83
-13.74
-6.49
2.49
12.39
22.19
30.93
38.06
43.53
47.75
51.26
54.52
57.63
60.35
62.22
62.85
62.13
60.28
57.79
55.11
52.40
49.42
45.63
40.49
33.83
26.03
17.94
10.49
4.32
-0.49
-4.36
-7.90
-11.52
-15.19
-18.50
-20.91
-22.10
-22.21
-21.79
-21.57
-22.15
-23.72
-26.01
-28.46
-30.38
-31.29
-31.00
-29.70
-27.76
-25.67
-23.81
-22.53
-22.07
-22.70
-24.64
-28.11
-33.14
-39.52
-46.78
-54.30
-61.48
-67.89
-73.30
-77.67
-80.99
-83.15
-83.94
-83.14
-80.67
-76.76
-71.90
-66.71
-61.68
-57.05
-52.81
-48.84
-45.06
-41.52
-38.43
-35.95
-34.14
-32.88
-31.90
-30.97
-29.91
-28.70
-27.44
-26.28
-25.30
-24.49
-23.73
-22.85
-21.77
-20.52
-19.27
-18.23
-17.53
-17.19
-17.12
-17.20
-17.34
-17.57
-17.93
-18.44
-19.11
-19.88
-20.73
-21.68
-22.77
-24.00
-25.18
-26.03
-26.18
-25.33
-23.34
-20.27
-16.33
-11.81
-7.04
-2.36
1.77
4.94
6.96
7.87
8.01
7.62
6.95
6.18
5.43
4.55
3.39
1.88
0.17
-1.50
-3.06
-4.53
-5.87
-7.03
-8.31
-9.95
-11.92
-13.96
-15.55
-16.71
-17.57
-18.19
-18.58
-19.92
-23.12
-28.27
-34.53
-40.14
-44.79
-48.57
-51.50
-53.51
-56.73
-62.77
-71.45
-80.82
-87.07
-89.72
-89.35
-86.72
-82.70
-81.77
-87.38
-99.99
-116.79
-131.63
-143.27
-152.05
-158.52
-163.62
-173.23
-192.33
-222.50
-261.22
-301.48
-341.90
-381.87
-419.51
-420.64
-364.32
-253.93
-116.14
-0.23
90.64
160.38
212.43
251.54
278.08
287.95
279.38
255.14
221.96
189.95
161.71
137.19
116.21
98.79
82.00
63.56
43.07
22.08
4.78
-9.33
-21.04
-29.60
-32.86
-29.84
-19.10
1.63
34.77
82.51
141.56
205.75
268.03
321.76
361.14
383.05
387.58
377.43
357.10
329.79
298.05
264.20
230.25
197.52
166.86
138.77
113.38
90.82
70.62
52.40
36.15
22.21
10.90
2.16
-4.64
-10.50
-16.43
-22.90
-29.73
-36.30
-41.98
-46.61
-50.55
-54.48
-58.92
-63.94
-69.06
-73.50
-76.48
-77.58
-76.82
-74.56
-71.30
-67.40
-62.87
-57.43
-50.64
-42.20
-32.20
-21.25
-10.34
-0.58
7.07
11.96
13.82
12.63
8.68
2.51
-5.07
-13.09
-20.65
-27.15
-32.39
-36.50
-39.72
-42.15
-43.72
-44.31
-43.89
-42.64
-40.93
-39.14
-37.49
-35.99
-34.42
-32.51
-30.10
-27.30
-24.61
-22.77
-22.63
-24.80
-29.49
-36.38
-44.75
-53.80
-62.88
-71.72
-80.41
-89.21
-98.42
-108.20
-118.62
-129.56
-140.63
-151.06
-159.51
-164.20
-163.25
-155.14
-139.22
-115.95
-86.87
-54.27
-20.68
11.50
40.41
64.79
84.02
98.02
107.10
111.84
113.01
111.47
108.08
103.61
98.55
93.20
87.62
81.88
76.14
70.72
65.98
62.11
59.06
56.53
54.16
51.75
49.37
47.34
46.03
45.63
46.04
46.87
47.57
47.58
46.53
44.29
40.87
36.48
31.40
25.99
20.66
15.73
11.37
7.45
3.65
-0.49
-5.34
-10.99
-17.20
-23.46
-29.20
-34.04
-37.86
-40.74
-42.67
-43.38
-42.19
-38.17
-30.57
-19.18
-4.57
11.90
28.44
43.28
55.06
63.04
67.13
67.83
66.02
62.84
59.48
56.97
55.87
56.18
57.30
58.32
58.29
56.61
53.17
48.39
42.89
37.26
31.78
26.35
20.66
14.33
7.10
-1.08
-10.12
-19.83
-29.92
-40.08
-49.92
-59.07
-67.21
-74.15
-79.85
-84.41
-87.93
-90.51
-92.23
-93.25
-93.88
-94.61
-95.98
-98.42
-101.98
-106.15
-109.86
-111.60
-109.81
-103.27
-91.48
-74.81
-54.44
-32.04
-9.34
12.12
31.23
47.27
59.87
68.88
74.43
76.90
76.96
75.42
73.07
70.48
67.85
65.10
62.02
58.49
54.62
50.79
47.44
44.86
43.03
41.53
39.71
36.94
32.80
27.25
20.55
13.19
5.63
-1.86
-9.24
-16.74
-24.71
-33.43
-42.99
-53.13
-63.32
-72.88
-81.21
-88.06
-93.59
-98.41
-103.41
-109.48
-117.34
-127.25
-138.81
-150.83
-161.38
-168.12
-168.87
-162.24
-148.07
-127.40
-102.08
-74.18
-45.43
-17.01
10.42
36.52
61.14
84.24
105.93
126.34
145.69
164.16
181.91
199.03
215.47
230.91
244.80
256.59
266.11
273.71
280.07
285.61
289.94
291.83
289.73
282.72
271.12
256.30
240.00
223.38
206.61
189.02
169.55
147.15
121.02
90.74
56.62
20.20
-15.45
-46.11
-67.43
-76.46
-72.80
-58.89
-39.28
-19.17
-2.93
6.96
10.12
7.79
2.02
-5.31
-13.08
-21.00
-29.30
-38.11
-47.07
-55.51
-62.79
-68.77
-73.90
-78.83
-83.92
-88.82
-92.57
-94.07
-92.76
-88.92
-83.59
-78.05
-73.21
-69.21
-65.41
-60.78
-54.37
-45.77
-35.21
-23.50
-11.71
-0.90
8.14
14.93
19.33
21.33
20.96
18.30
13.49
6.84
-1.07
-9.50
-17.64
-24.90
-31.00
-36.02
-40.27
-44.09
-47.67
-50.99
-53.91
-56.25
-57.99
-59.27
-60.34
-61.49
-62.90
-64.59
-66.38
-67.99
-69.08
-69.36
-68.62
-66.75
-63.67
-59.39
-53.95
-47.48
-40.26
-32.73
-25.35
-18.61
-12.85
-8.25
-4.88
-2.68
-1.54
-1.29
-1.69
-2.47
-3.36
-4.15
-4.70
-5.01
-5.11
-5.12
-5.11
-5.17
-5.32
-5.53
-5.73
-5.88
-6.00
-6.15
-6.46
-7.01
-7.81
-8.78
-9.84
-10.90
-11.94
-13.01
-14.10
-15.18
-16.17
-17.05
-17.88
-18.82
-20.07
-21.72
-23.65
-25.60
-27.19
-28.05
-27.98
-26.91
-24.87
-21.94
-18.28
-14.08
-9.64
-5.30
-1.40
1.89
4.53
6.64
8.35
9.72
10.71
11.20
11.13
10.52
9.52
8.35
7.23
6.32
5.66
5.23
4.96
4.79
4.63
4.39
3.98
3.30
2.33
1.16
-0.07
-1.23
-2.25
-3.16
-4.08
-5.16
-6.47
-8.02
-9.70
-11.41
-13.07
-14.69
-16.33
-18.11
-20.11
-22.27
-24.43
-26.29
-27.53
-27.88
-27.19
-25.42
-22.63
-18.95
-14.54
-9.66
-4.62
0.20
4.46
7.88
10.33
11.82
12.51
12.64
12.46
12.16
11.87
11.62
11.40
11.16
10.85
10.47
10.02
9.55
9.11
8.79
8.61
8.55
8.49
8.27
7.77
6.93
5.82
4.58
3.35
2.18
1.00
-0.33
-1.91
-3.77
-5.82
-7.91
-9.88
-11.62
-13.14
-14.54
-15.95
-17.51
-19.32
-21.37
-23.50
-25.45
-26.87
-27.41
-26.81
-24.97
-21.95
-17.94
-13.21
-8.04
-2.75
2.35
7.01
10.99
14.19
16.55
18.09
18.86
18.93
18.43
17.55
16.54
15.58
14.75
14.02
13.29
12.53
11.82
11.31
11.12
11.25
11.56
11.78
11.68
11.18
10.34
9.35
8.34
7.37
6.36
5.21
3.87
2.38
0.92
-0.40
-1.55
-2.67
-3.95
-5.53
-7.39
-9.37
-11.25
-12.88
-14.28
-15.54
-16.83
-18.25
-19.86
-21.67
-23.65
-25.70
-27.61
-29.02
-29.48
-28.63
-26.29
-22.55
-17.75
-12.36
-6.88
-1.69
2.96
6.99
10.41
13.26
15.57
17.28
18.27
18.47
17.92
16.85
15.59
14.52
13.80
13.44
13.26
13.11
12.95
12.85
12.92
13.16
13.46
13.59
13.37
12.75
11.81
10.71
9.53
8.26
6.79
5.06
3.07
0.93
-1.21
-3.23
-5.07
-6.75
-8.29
-9.71
-11.05
-12.39
-13.79
-15.33
-17.00
-18.74
-20.49
-22.22
-23.98
-25.84
-27.78
-29.60
-30.91
-31.22
-30.14
-27.50
-23.49
-18.50
-13.03
-7.50
-2.17
2.83
7.43
11.54
14.95
17.51
19.10
19.75
19.68
19.18
18.59
18.13
17.90
17.88
17.97
18.07
18.12
18.11
18.08
18.04
18.06
18.08
18.04
17.80
17.25
16.31
15.03
13.56
12.07
10.68
9.39
8.06
6.49
4.52
2.15
-0.49
-3.14
-5.54
-7.54
-9.13
-10.43
-11.63
-12.97
-14.59
-16.59
-18.94
-21.54
-24.15
-26.44
-27.96
-28.28
-27.08
-24.24
-19.93
-14.54
-8.62
-2.68
2.88
7.77
11.90
15.22
17.79
19.66
20.86
21.46
21.53
21.15
20.49
19.74
19.05
18.51
18.11
17.77
17.43
17.10
16.84
16.67
16.51
16.18
15.52
14.45
13.05
11.52
10.04
8.67
7.32
5.83
4.06
1.98
-0.29
-2.61
-4.86
-7.01
-9.09
-11.15
-13.16
-15.09
-16.84
-18.32
-19.54
-20.61
-21.70
-23.00
-24.63
-26.62
-28.80
-30.86
-32.41
-32.99
-32.27
-30.08
-26.42
-21.51
-15.69
-9.40
-3.10
2.84
8.16
12.72
16.44
19.32
21.34
22.49
22.83
22.49
21.72
20.78
19.92
19.26
18.78
18.43
18.17
17.99
17.89
17.86
17.78
17.50
16.90
15.97
14.82
13.62
12.54
11.60
10.71
9.68
8.40
6.83
5.09
3.36
1.75
0.31
-1.09
-2.56
-4.23
-6.09
-8.02
-9.86
-11.49
-12.91
-14.19
-15.43
-16.69
-18.00
-19.37
-20.87
-22.64
-24.80
-27.28
-29.74
-31.56
-32.07
-30.75
-27.52
-22.71
-16.94
-10.86
-4.97
0.48
5.40
9.73
13.38
16.21
18.13
19.18
19.54
19.45
19.13
18.65
17.97
17.05
15.87
14.59
13.45
12.68
12.40
12.50
12.74
12.87
12.72
12.28
11.68
11.05
10.43
9.76
8.95
7.90
6.60
5.16
3.67
2.23
0.85
-0.50
-1.93
-3.48
-5.22
-7.12
-9.14
-11.19
-13.21
-15.11
-16.89
-18.61
-20.30
-21.96
-23.44
-24.45
-24.59
-23.52
-21.05
-17.20
-12.23
-6.59
-0.77
4.73
9.52
13.40
16.27
18.20
19.29
19.68
19.51
18.92
18.05
17.05
16.06
15.18
14.43
13.81
13.27
12.80
12.39
12.07
11.85
11.69
11.54
11.32
10.94
10.36
9.50
8.38
7.02
5.47
3.81
2.13
0.50
-1.05
-2.55
-4.02
-5.50
-7.01
-8.53
-10.03
-11.52
-13.03
-14.60
-16.26
-18.05
-19.96
-21.97
-24.10
-26.30
-28.45
-30.27
-31.29
-31.00
-29.05
-25.35
-20.22
-14.20
-7.93
-1.96
3.42
8.09
12.05
15.31
17.82
19.53
20.45
20.69
20.43
19.89
19.23
18.52
17.78
17.00
16.18
15.37
14.64
14.10
13.80
13.75
13.91
14.16
14.36
14.34
14.02
13.38
12.46
11.35
10.09
8.69
7.11
5.33
3.38
1.38
-0.57
-2.38
-4.04
-5.64
-7.25
-8.91
-10.61
-12.26
-13.76
-15.08
-16.25
-17.39
-18.69
-20.33
-22.40
-24.84
-27.39
-29.61
-30.95
-30.95
-29.35
-26.16
-21.62
-16.12
-10.08
-3.87
2.12
7.59
12.23
15.87
18.45
20.07
20.88
21.07
20.77
20.10
19.17
18.13
17.13
16.27
15.57
14.99
14.47
14.01
13.63
13.41
13.35
13.35
13.27
12.97
12.37
11.55
10.65
9.78
9.00
8.25
7.39
6.29
4.90
3.25
1.45
-0.41
-2.32
-4.30
-6.35
-8.41
-10.35
-12.01
-13.31
-14.30
-15.17
-16.13
-17.39
-19.03
-21.06
-23.36
-25.73
-27.91
-29.52
-30.17
-29.49
-27.29
-23.63
-18.87
-13.50
-8.03
-2.83
1.93
6.24
10.08
13.41
16.06
17.90
18.89
19.13
18.85
18.26
17.51
16.63
15.65
14.61
13.65
12.96
12.63
12.67
12.93
13.22
13.35
13.28
13.00
12.54
11.89
11.00
9.82
8.38
6.79
5.22
3.82
2.59
1.42
0.13
-1.41
-3.25
-5.28
-7.36
-9.31
-11.02
-12.46
-13.65
-14.70
-15.75
-16.98
-18.56
-20.57
-22.90
-25.27
-27.24
-28.30
-28.04
-26.26
-23.00
-18.52
-13.25
-7.64
-2.09
3.06
7.65
11.57
14.80
17.33
19.18
20.36
20.89
20.81
20.19
19.16
17.88
16.57
15.42
14.55
13.97
13.61
13.36
13.12
12.86
12.52
12.08
11.48
10.68
9.64
8.40
7.04
5.63
4.25
2.93
1.63
0.29
-1.14
-2.72
-4.41
-6.12
-7.69
-9.01
-10.10
-11.08
-12.21
-13.70
-15.69
-18.13
-20.85
-23.53
-25.83
-27.38
-27.86
-26.99
-24.65
-20.89
-15.99
-10.38
-4.56
0.96
5.82
9.76
12.68
14.61
15.66
16.02
15.91
15.53
14.99
14.36
13.66
12.89
12.08
11.25
10.47
9.75
9.10
8.48
7.89
7.34
6.84
6.37
5.88
5.26
4.40
3.22
1.68
-0.11
-2.04
-3.97
-5.77
-7.47
-9.17
-11.05
-13.24
-15.76
-18.46
-21.18
-23.72
-26.03
-28.18
-30.37
-32.77
-35.50
-38.61
-42.05
-45.69
-49.32
-52.66
-55.42
-57.41
-58.53
-58.76
-58.04
-56.16
-52.83
-47.85
-41.51
-34.67
-28.71
-25.09
-24.78
-27.94
-33.96
-41.87
-50.79
-60.13
-69.27
-77.32
-83.02
-85.09
-82.96
-77.13
-68.90
-59.53
-49.47
-38.24
-25.03
-9.74
6.54
22.05
35.46
47.00
58.51
72.38
90.01
110.65
131.45
148.71
159.42
162.45
158.74
150.76
141.46
133.43
128.29
126.32
126.26
125.67
121.67
111.96
95.75
74.04
49.13
23.60
-0.66
-22.79
-42.57
-59.66
-73.05
-81.21
-82.78
-77.41
-66.14
-51.11
-34.67
-18.64
-3.82
9.79
22.43
34.08
44.30
52.38
57.82
60.70
61.67
61.79
62.02
62.90
64.38
65.95
66.91
66.70
65.07
62.12
58.17
53.57
48.58
43.34
37.88
32.19
26.33
20.40
14.51
8.74
3.10
-2.46
-8.00
-13.53
-19.03
-24.46
-29.79
-34.99
-39.94
-44.53
-48.61
-52.19
-55.45
-58.72
-62.26
-66.03
-69.54
-71.95
-72.37
-70.20
-65.37
-58.37
-50.03
-41.25
-32.86
-25.43
-19.31
-14.49
-10.62
-7.04
-3.06
1.75
7.24
12.80
17.63
21.20
23.52
25.12
26.65
28.49
30.49
32.16
32.87
32.28
30.39
27.55
24.21
20.73
17.27
13.84
10.35
6.73
3.08
-0.41
-3.47
-5.95
-7.89
-9.60
-11.53
-14.09
-17.50
-21.74
-26.58
-31.68
-36.63
-40.95
-44.14
-45.69
-45.21
-42.54
-37.82
-31.41
-23.84
-15.68
-7.40
0.61
8.09
14.86
20.82
25.89
30.00
33.07
35.01
35.82
35.56
34.37
32.48
30.12
27.50
24.88
22.52
20.59
19.14
18.02
16.92
15.49
13.46
10.76
7.56
4.11
0.66
-2.63
-5.76
-8.80
-11.89
-15.12
-18.54
-22.11
-25.74
-29.32
-32.78
-36.15
-39.47
-42.78
-46.00
-48.81
-50.74
-51.25
-49.87
-46.38
-40.85
-33.66
-25.35
-16.55
-7.89
0.19
7.31
13.30
18.06
21.64
24.09
25.54
26.08
25.82
24.82
23.18
21.01
18.53
16.01
13.77
12.09
11.08
10.66
10.59
10.55
10.31
9.78
9.06
8.24
7.36
6.34
4.98
3.14
0.81
-1.86
-4.62
-7.26
-9.68
-11.92
-14.12
-16.36
-18.72
-21.23
-23.91
-26.76
-29.68
-32.45
-34.62
-35.61
-34.92
-32.21
-27.53
-21.28
-14.09
-6.67
0.38
6.58
11.68
15.61
18.41
20.25
21.31
21.77
21.79
21.45
20.83
19.98
18.92
17.67
16.24
14.66
13.03
11.51
10.29
9.53
9.24
9.30
9.45
9.44
9.10
8.32
7.10
5.54
3.78
1.99
0.28
-1.29
-2.77
-4.31
-6.07
-8.14
-10.48
-12.96
-15.42
-17.79
-20.08
-22.43
-24.96
-27.68
-30.36
-32.55
-33.67
-33.18
-30.80
-26.57
-20.90
-14.40
-7.70
-1.32
4.43
9.39
13.49
16.67
18.90
20.15
20.51
20.12
19.19
17.91
16.47
15.02
13.68
12.56
11.75
11.25
11.02
10.92
10.79
10.45
9.79
8.82
7.61
6.27
4.90
3.50
2.01
0.35
-1.54
-3.62
-5.79
-7.97
-10.09
-12.18
-14.31
-16.58
-19.08
-21.83
-24.81
-27.84
-30.63
-32.74
-33.66
-32.92
-30.25
-25.68
-19.59
-12.59
-5.35
1.50
7.56
12.63
16.65
19.63
21.62
22.68
22.89
22.42
21.46
20.18
18.74
17.23
15.74
14.35
13.16
12.24
11.64
11.32
11.15
10.98
10.65
10.11
9.33
8.32
7.05
5.49
3.58
1.35
-1.11
-3.64
-6.02
-8.12
-9.93
-11.61
-13.36
-15.41
-17.83
-20.56
-23.46
-26.42
-29.33
-32.14
-34.64
-36.46
-37.04
-35.85
-32.60
-27.37
-20.64
-13.12
-5.49
1.73
8.19
13.75
18.28
21.71
23.97
25.11
25.28
24.73
23.75
22.58
21.37
20.19
19.05
17.95
16.94
16.09
15.45
15.04
14.80
14.57
14.12
13.28
11.94
10.14
7.99
5.72
3.53
1.59
-0.04
-1.44
-2.79
-4.29
-6.09
-8.18
-10.42
-12.59
-14.57
-16.34
-18.02
-19.87
-22.10
-24.82
-27.95
-31.14
-33.90
-35.61
-35.70
-33.80
-29.84
-24.06
-17.01
-9.36
-1.81
5.08
10.95
15.65
19.17
21.62
23.12
23.80
23.81
23.34
22.56
21.66
20.78
19.93
19.12
18.30
17.47
16.68
16.01
15.52
15.19
14.91
14.54
13.93
12.97
11.67
10.07
8.33
6.57
4.89
3.27
1.60
-0.28
-2.48
-5.02
-7.77
-10.56
-13.17
-15.47
-17.44
-19.15
-20.77
-22.46
-24.39
-26.68
-29.29
-32.02
-34.42
-35.90
-35.88
-33.98
-30.13
-24.64
-18.02
-10.86
-3.70
3.04
9.05
14.09
18.03
20.82
22.54
23.35
23.44
22.96
22.05
20.80
19.34
17.78
16.24
14.85
13.71
12.92
12.51
12.47
12.67
12.93
13.02
12.79
12.16
11.13
9.73
7.99
5.99
3.80
1.56
-0.58
-2.57
-4.43
-6.25
-8.13
-10.12
-12.19
-14.30
-16.51
-18.94
-21.70
-24.82
-28.06
-30.89
-32.65
-32.71
-30.72
-26.70
-21.04
-14.36
-7.31
-0.43
5.93
11.54
16.22
19.84
22.27
23.46
23.47
22.51
20.89
18.97
17.05
15.37
14.04
13.05
12.35
11.82
11.39
11.03
10.72
10.46
10.22
9.92
9.46
8.75
7.73
6.42
4.84
3.05
1.09
-1.08
-3.45
-6.03
-8.74
-11.43
-13.95
-16.20
-18.18
-20.01
-21.91
-24.10
-26.72
-29.77
-33.06
-36.18
-38.54
-39.45
-38.31
-34.84
-29.19
-21.95
-13.91
-5.91
1.46
7.87
13.26
17.68
21.23
23.92
25.79
26.80
27.00
26.46
25.37
23.95
22.45
21.03
19.80
18.76
17.90
17.22
16.74
16.43
16.19
15.88
15.32
14.46
13.32
11.99
10.56
9.04
7.36
5.45
3.26
0.77
-1.95
-4.78
-7.58
-10.20
-12.51
-14.50
-16.25
-17.95
-19.89
-22.26
-25.13
-28.38
-31.71
-34.67
-36.73
-37.34
-36.08
-32.79
-27.58
-20.86
-13.24
-5.33
2.29
9.16
15.01
19.69
23.21
25.66
27.16
27.84
27.78
27.04
25.74
24.04
22.23
20.57
19.26
18.35
17.73
17.25
16.79
16.31
15.86
15.48
15.10
14.56
13.65
12.26
10.40
8.28
6.16
4.26
2.59
0.96
-0.90
-3.19
-5.92
-8.89
-11.76
-14.25
-16.21
-17.73
-19.03
-20.43
-22.16
-24.38
-27.08
-30.13
-33.22
-35.90
-37.58
-37.69
-35.77
-31.66
-25.60
-18.14
-10.06
-2.11
5.10
11.23
16.15
19.86
22.45
24.02
24.71
24.64
23.97
22.86
21.48
19.99
18.53
17.24
16.21
15.51
15.09
14.90
14.81
14.73
14.53
14.11
13.37
12.26
10.79
9.04
7.16
5.27
3.40
1.50
-0.50
-2.66
-4.97
-7.28
-9.43
-11.35
-13.05
-14.69
-16.48
-18.62
-21.23
-24.29
-27.61
-30.76
-33.16
-34.16
-33.25
-30.20
-25.17
-18.63
-11.23
-3.60
3.70
10.29
15.85
20.14
23.03
24.53
24.81
24.17
22.91
21.31
19.52
17.68
15.91
14.34
13.09
12.24
11.80
11.66
11.72
11.83
11.88
11.76
11.35
10.58
9.44
7.99
6.38
4.73
3.04
1.18
-1.02
-3.70
-6.80
-10.06
-13.14
-15.73
-17.75
-19.33
-20.80
-22.49
-24.67
-27.46
-30.80
-34.52
-38.24
-41.40
-43.29
-43.15
-40.48
-35.18
-27.68
-18.81
-9.60
-0.91
6.73
13.17
18.48
22.78
26.09
28.36
29.53
29.66
28.93
27.59
25.90
24.04
22.10
20.18
18.40
16.94
15.98
15.58
15.65
15.97
16.25
16.25
15.81
14.90
13.56
11.91
10.02
7.98
5.83
3.58
1.23
-1.22
-3.79
-6.44
-9.12
-11.75
-14.23
-16.49
-18.49
-20.28
-22.03
-23.97
-26.35
-29.32
-32.79
-36.41
-39.57
-41.53
-41.66
-39.54
-35.11
-28.63
-20.64
-11.84
-2.93
5.44
12.83
18.98
23.81
27.35
29.66
30.77
30.74
29.69
27.84
25.54
23.18
21.06
19.36
18.13
17.33
16.86
16.68
16.74
16.95
17.21
17.36
17.19
16.53
15.31
13.55
11.36
8.94
6.47
4.11
1.91
-0.20
-2.33
-4.62
-7.14
-9.84
-12.57
-15.13
-17.39
-19.35
-21.16
-23.09
-25.36
-28.15
-31.45
-35.05
-38.54
-41.31
-42.70
-42.06
-39.04
-33.62
-26.24
-17.62
-8.62
0.02
7.82
14.50
19.97
24.18
27.13
28.81
29.30
28.76
27.42
25.58
23.50
21.45
19.61
18.09
16.95
16.18
15.77
15.68
15.80
16.03
16.21
16.18
15.76
14.88
13.48
11.67
9.53
7.20
4.71
2.09
-0.68
-3.57
-6.50
-9.36
-11.98
-14.30
-16.34
-18.27
-20.34
-22.79
-25.75
-29.13
-32.63
-35.70
-37.71
-38.07
-36.32
-32.32
-26.22
-18.54
-9.97
-1.32
6.73
13.70
19.31
23.51
26.27
27.69
27.84
26.88
25.09
22.79
20.34
17.97
15.86
14.08
12.71
11.83
11.50
11.66
12.12
12.61
12.84
12.62
11.88
10.69
9.14
7.31
5.24
2.91
0.35
-2.44
-5.42
-8.51
-11.64
-14.70
-17.60
-20.23
-22.59
-24.76
-26.97
-29.53
-32.68
-36.41
-40.43
-44.07
-46.47
-46.82
-44.54
-39.51
-32.07
-22.90
-12.89
-2.89
6.42
14.61
21.46
26.87
30.81
33.27
34.30
34.04
32.77
30.86
28.65
26.45
24.44
22.73
21.37
20.43
19.95
19.88
20.11
20.43
20.57
20.33
19.57
18.27
16.47
14.31
11.91
9.37
6.75
4.05
1.23
-1.78
-4.96
-8.25
-11.57
-14.75
-17.67
-20.24
-22.49
-24.56
-26.68
-29.17
-32.28
-36.04
-40.14
-43.90
-46.34
-46.55
-43.85
-38.14
-29.88
-19.96
-9.41
0.83
10.13
18.12
24.62
29.58
32.97
34.80
35.24
34.54
33.03
31.07
28.98
27.00
25.30
23.95
22.98
22.38
22.08
21.99
22.03
22.05
21.93
21.53
20.79
19.66
18.16
16.32
14.16
11.74
9.11
6.39
3.67
1.02
-1.59
-4.28
-7.17
-10.28
-13.48
-16.54
-19.24
-21.49
-23.34
-25.03
-26.80
-28.84
-31.29
-34.21
-37.56
-41.17
-44.63
-47.32
-48.41
-47.15
-43.07
-36.19
-27.08
-16.70
-6.14
3.67
12.13
19.03
24.41
28.45
31.30
33.00
33.58
33.06
31.61
29.49
27.09
24.80
22.92
21.65
21.02
20.94
21.23
21.70
22.14
22.37
22.23
21.63
20.49
18.81
16.61
14.03
11.24
8.45
5.83
3.42
1.17
-1.12
-3.64
-6.52
-9.67
-12.89
-15.84
-18.28
-20.21
-21.84
-23.63
-25.99
-29.16
-33.05
-37.23
-40.96
-43.40
-43.80
-41.66
-36.86
-29.69
-20.82
-11.11
-1.49
7.29
14.72
20.60
24.95
27.86
29.44
29.75
28.86
26.98
24.46
21.77
19.37
17.55
16.33
15.61
15.17
14.93
14.90
15.12
15.55
15.96
16.05
15.47
14.09
12.01
9.52
6.98
4.65
2.56
0.51
-1.81
-4.67
-8.17
-12.15
-16.26
-20.10
-23.39
-26.01
-28.09
-29.92
-31.88
-34.33
-37.52
-41.46
-45.79
-49.81
-52.58
-53.13
-50.76
-45.24
-36.92
-26.62
-15.37
-4.20
6.13
15.13
22.57
28.47
32.89
35.93
37.68
38.26
37.80
36.54
34.74
32.73
30.75
28.94
27.34
25.92
24.68
23.62
22.84
22.41
22.31
22.37
22.30
21.73
20.45
18.40
15.75
12.81
9.84
7.00
4.25
1.46
-1.52
-4.73
-8.10
-11.51
-14.83
-18.01
-20.99
-23.66
-25.92
-27.73
-29.21
-30.78
-32.96
-36.21
-40.53
-45.39
-49.70
-52.15
-51.67
-47.74
-40.57
-30.94
-19.94
-8.59
2.29
12.16
20.65
27.53
32.65
35.99
37.66
37.93
37.19
35.80
34.08
32.18
30.24
28.32
26.51
24.89
23.60
22.70
22.26
22.24
22.52
22.87
22.98
22.55
21.42
19.58
17.17
14.48
11.74
9.10
6.55
3.99
1.34
-1.45
-4.33
-7.25
-10.17
-13.08
-15.96
-18.72
-21.22
-23.32
-25.00
-26.42
-27.91
-29.89
-32.69
-36.41
-40.79
-45.24
-48.90
-50.79
-50.09
-46.32
-39.50
-30.20
-19.39
-8.18
2.43
11.74
19.43
25.46
29.91
32.91
34.54
34.90
34.14
32.53
30.42
28.19
26.12
24.41
23.07
22.08
21.38
20.96
20.80
20.89
21.09
21.25
21.12
20.49
19.21
17.27
14.81
12.05
9.27
6.64
4.22
1.88
-0.52
-3.14
-5.98
-8.96
-11.89
-14.63
-17.09
-19.28
-21.25
-23.10
-24.97
-27.03
-29.50
-32.50
-35.88
-39.17
-41.52
-42.02
-39.92
-34.97
-27.55
-18.51
-8.89
0.36
8.62
15.58
21.12
25.17
27.71
28.76
28.47
27.13
25.14
22.89
20.66
18.57
16.65
14.91
13.44
12.33
11.71
11.63
11.99
12.57
13.05
13.16
12.69
11.62
9.96
7.87
5.44
2.74
-0.21
-3.40
-6.81
-10.35
-13.83
-17.03
-19.77
-22.00
-23.89
-25.74
-27.92
-30.69
-34.11
-38.03
-42.08
-45.66
-48.09
-48.60
-46.49
-41.42
-33.49
-23.42
-12.34
-1.50
8.08
15.86
21.79
26.15
29.22
31.21
32.15
32.06
31.05
29.36
27.34
25.30
23.40
21.71
20.20
18.89
17.88
17.30
17.24
17.60
18.11
18.39
18.09
17.02
15.19
12.80
10.13
7.42
4.79
2.25
-0.33
-3.11
-6.15
-9.46
-12.95
-16.42
-19.69
-22.61
-25.12
-27.38
-29.65
-32.28
-35.54
-39.38
-43.40
-46.84
-48.76
-48.33
-45.11
-39.12
-30.86
-21.13
-10.82
-0.72
8.54
16.52
22.94
27.70
30.81
32.41
32.75
32.13
30.84
29.09
27.07
24.87
22.66
20.63
18.99
17.90
17.44
17.49
17.83
18.15
18.17
17.73
16.78
15.36
13.55
11.43
9.06
6.48
3.71
0.77
-2.29
-5.45
-8.64
-11.78
-14.82
-17.68
-20.30
-22.68
-24.91
-27.18
-29.72
-32.72
-36.17
-39.78
-42.96
-44.90
-44.81
-42.14
-36.76
-29.03
-19.68
-9.65
0.12
8.89
16.17
21.78
25.80
28.40
29.84
30.33
30.02
29.04
27.54
25.68
23.67
21.71
19.97
18.56
17.52
16.84
16.52
16.49
16.66
16.87
16.91
16.57
15.64
14.04
11.82
9.13
6.15
3.07
-0.01
-3.09
-6.16
-9.29
-12.45
-15.61
-18.68
-21.62
-24.42
-27.19
-30.08
-33.21
-36.54
-39.77
-42.33
-43.40
-42.21
-38.29
-31.65
-22.85
-12.81
-2.57
6.94
15.14
21.72
26.58
29.73
31.24
31.21
29.87
27.61
24.93
22.37
20.32
18.95
18.21
17.84
17.60
17.34
17.03
16.76
16.60
16.53
16.40
16.00
15.09
13.54
11.34
8.65
5.68
2.67
-0.25
-3.08
-5.93
-8.92
-12.12
-15.49
-18.82
-21.89
-24.48
-26.51
-28.11
-29.57
-31.28
-33.68
-37.03
-41.33
-46.16
-50.69
-53.87
-54.62
-52.19
-46.38
-37.61
-26.81
-15.14
-3.68
6.76
15.76
23.19
29.08
33.51
36.53
38.18
38.51
37.72
36.09
33.95
31.67
29.55
27.79
26.45
25.53
24.94
24.59
24.38
24.21
23.97
23.53
22.76
21.56
19.90
17.81
15.40
12.79
10.06
7.26
4.42
1.60
-1.14
-3.71
-6.10
-8.38
-10.67
-13.08
-15.62
-18.20
-20.65
-22.82
-24.71
-26.44
-28.24
-30.37
-33.04
-36.37
-40.36
-44.78
-49.09
-52.47
-53.90
-52.45
-47.62
-39.51
-28.87
-16.84
-4.63
6.79
16.84
25.31
32.18
37.48
41.21
43.36
44.01
43.34
41.69
39.44
36.94
34.47
32.21
30.27
28.73
27.66
27.07
26.93
27.13
27.51
27.84
27.90
27.51
26.53
24.92
22.75
20.19
17.43
14.67
12.00
9.49
7.09
4.79
2.56
0.39
-1.70
-3.72
-5.68
-7.60
-9.53
-11.47
-13.43
-15.40
-17.35
-19.26
-21.16
-23.04
-24.92
-26.80
-28.67
-30.56
-32.58
-34.95
-37.89
-41.60
-45.94
-50.41
-54.11
-55.93
-54.90
-50.49
-42.82
-32.58
-20.91
-8.94
2.34
12.30
20.60
27.11
31.81
34.76
36.09
36.05
34.92
33.03
30.70
28.20
25.80
23.73
22.18
21.27
21.04
21.41
22.21
23.19
24.10
24.70
24.81
24.31
23.17
21.45
19.30
16.94
14.56
12.31
10.15
7.96
5.55
2.85
-0.10
-3.08
-5.87
-8.31
-10.43
-12.39
-14.39
-16.55
-18.86
-21.16
-23.28
-25.10
-26.65
-28.05
-29.55
-31.44
-33.95
-37.18
-40.98
-44.85
-48.06
-49.72
-49.01
-45.44
-39.00
-30.17
-19.87
-9.12
1.15
10.33
18.13
24.51
29.47
33.01
35.04
35.56
34.69
32.78
30.31
27.77
25.55
23.79
22.47
21.48
20.74
20.23
20.04
20.26
20.85
21.63
22.29
22.48
21.96
20.66
18.73
16.42
14.00
11.65
9.42
7.22
4.91
2.37
-0.47
-3.53
-6.65
-9.62
-12.27
-14.56
-16.55
-18.39
-20.21
-22.08
-23.94
-25.72
-27.36
-28.90
-30.43
-32.14
-34.20
-36.84
-40.17
-44.21
-48.64
-52.82
-55.78
-56.44
-53.93
-47.88
-38.64
-27.12
-14.61
-2.38
8.56
17.64
24.72
29.97
33.70
36.17
37.58
38.05
37.66
36.57
34.98
33.18
31.37
29.69
28.17
26.81
25.70
24.97
24.80
25.24
26.11
27.09
27.73
27.70
26.82
25.16
22.95
20.45
17.91
15.50
13.25
11.14
9.03
6.81
4.35
1.65
-1.21
-4.05
-6.70
-9.05
-11.12
-13.06
-15.03
-17.17
-19.48
-21.84
-24.04
-25.94
-27.50
-28.83
-30.15
-31.76
-33.94
-36.89
-40.69
-45.16
-49.80
-53.81
-56.17
-55.91
-52.39
-45.52
-35.84
-24.37
-12.31
-0.76
9.49
18.06
24.85
29.99
33.64
35.94
37.03
37.05
36.19
34.69
32.81
30.77
28.74
26.90
25.36
24.25
23.69
23.66
24.06
24.64
25.09
25.12
24.52
23.28
21.55
19.57
17.50
15.43
13.30
11.00
8.44
5.65
2.74
-0.06
-2.61
-4.84
-6.85
-8.79
-10.79
-12.95
-15.23
-17.52
-19.66
-21.53
-23.11
-24.46
-25.84
-27.54
-29.87
-33.00
-36.85
-41.01
-44.75
-47.12
-47.23
-44.47
-38.71
-30.38
-20.39
-9.82
0.29
9.24
16.66
22.46
26.68
29.39
30.65
30.60
29.46
27.60
25.41
23.25
21.35
19.78
18.50
17.43
16.55
15.89
15.52
15.45
15.59
15.72
15.54
14.78
13.32
11.26
8.86
6.42
4.12
1.99
-0.12
-2.42
-5.04
-7.99
-11.17
-14.45
-17.65
-20.65
-23.31
-25.56
-27.54
-29.53
-32.01
-35.39
-39.73
-44.57
-48.91
-51.53
-51.33
-47.78
-41.08
-31.98
-21.61
-10.99
-0.96
8.01
15.66
21.96
26.89
30.47
32.71
33.63
33.33
32.00
29.99
27.68
25.50
23.77
22.61
21.92
21.50
21.18
20.89
20.68
20.62
20.69
20.70
20.39
19.51
17.93
15.71
13.06
10.20
7.29
4.40
1.46
-1.60
-4.82
-8.19
-11.61
-14.91
-17.93
-20.58
-22.86
-24.89
-26.85
-28.95
-31.39
-34.31
-37.75
-41.62
-45.58
-48.99
-51.02
-50.79
-47.66
-41.50
-32.72
-22.23
-11.15
-0.50
8.99
16.99
23.45
28.50
32.28
34.90
36.43
36.97
36.64
35.63
34.13
32.33
30.44
28.68
27.27
26.39
26.11
26.30
26.69
26.93
26.76
26.08
24.93
23.49
21.86
20.05
18.02
15.66
12.93
9.92
6.77
3.68
0.82
-1.79
-4.22
-6.63
-9.14
-11.80
-14.51
-17.10
-19.45
-21.51
-23.39
-25.26
-27.30
-29.62
-32.29
-35.36
-38.90
-42.86
-46.98
-50.66
-52.97
-52.95
-49.88
-43.57
-34.45
-23.49
-11.88
-0.71
9.24
17.58
24.24
29.33
33.02
35.41
36.60
36.68
35.83
34.29
32.40
30.49
28.83
27.48
26.40
25.46
24.60
23.85
23.32
23.10
23.08
23.07
22.71
21.73
20.03
17.72
15.05
12.30
9.69
7.26
4.95
2.61
0.10
-2.67
-5.68
-8.83
-11.95
-14.84
-17.34
-19.40
-21.07
-22.50
-23.88
-25.42
-27.28
-29.67
-32.70
-36.32
-40.23
-43.69
-45.70
-45.19
-41.51
-34.63
-25.28
-14.68
-4.14
5.34
13.27
19.61
24.56
28.30
30.87
32.22
32.29
31.21
29.32
27.07
24.93
23.24
22.09
21.38
20.92
20.47
19.95
19.39
18.91
18.59
18.40
18.16
17.62
16.52
14.72
12.30
9.47
6.50
3.65
1.05
-1.31
-3.53
-5.72
-8.00
-10.43
-13.02
-15.75
-18.52
-21.18
-23.56
-25.57
-27.22
-28.71
-30.38
-32.57
-35.60
-39.50
-44.03
-48.54
-52.09
-53.64
-52.28
-47.57
-39.69
-29.44
-17.98
-6.49
4.12
13.39
21.19
27.56
32.58
36.25
38.55
39.57
39.57
38.91
37.99
37.06
36.21
35.35
34.32
33.02
31.44
29.76
28.24
27.15
26.64
26.67
26.95
27.00
26.25
24.25
20.84
16.24
11.01
5.82
1.11
-3.05
-7.09
-11.86
-18.44
-27.88
-41.00
-58.20
-79.25
-103.27
-128.82
-154.11
-177.29
-196.77
-211.37
-220.34
-223.36
-220.54
-212.49
-200.32
-185.55
-169.71
-154.05
-139.22
-125.35
-112.33
-100.16
-89.09
-79.58
-72.00
-66.33
-61.86
-57.28
-50.72
-40.16
-23.88
-0.92
28.45
62.53
98.28
131.96
160.12
180.50
192.62
197.64
197.78
195.57
193.22
192.40
194.16
198.73
205.25
211.60
214.73
211.48
199.80
179.56
152.67
122.22
91.31
62.12
35.70
12.36
-7.89
-25.10
-39.47
-51.46
-61.74
-70.82
-78.75
-85.21
-89.91
-93.19
-96.21
-100.61
-107.67
-117.60
-129.31
-140.87
-150.31
-156.31
-158.27
-155.93
-148.81
-136.13
-117.34
-93.02
-65.59
-39.03
-17.91
-5.75
-3.87
-10.99
-23.77
-37.83
-48.84
-53.26
-48.42
-32.70
-5.45
32.79
80.10
132.87
186.01
233.25
268.12
285.14
281.18
256.46
214.70
162.39
107.41
57.28
17.88
-7.42
-18.02
-16.11
-5.99
6.87
17.38
22.17
20.38
13.33
3.31
-7.92
-19.97
-33.63
-49.94
-69.18
-90.63
-113.12
-135.91
-159.12
-183.29
-208.43
-233.07
-254.33
-268.85
-274.19
-269.89
-257.63
-240.44
-221.46
-202.81
-185.04
-167.34
-148.19
-126.15
-100.43
-71.17
-39.35
-6.39
26.17
57.16
85.88
112.09
135.73
156.57
173.99
187.02
194.63
196.26
192.21
183.82
173.33
163.35
156.22
153.49
155.47
161.36
169.62
178.73
187.80
196.95
207.01
218.90
232.91
248.27
263.24
275.68
283.55
285.14
279.08
264.14
239.46
204.98
161.97
113.19
62.35
13.07
-32.25
-73.06
-110.38
-145.90
-180.81
-215.02
-247.03
-274.51
-295.06
-307.06
-310.05
-304.57
-291.79
-272.87
-248.73
-220.08
-187.78
-153.18
-118.21
-85.07
-55.61
-30.86
-10.83
5.28
18.62
30.17
40.56
50.04
58.72
66.68
74.12
81.30
88.45
95.76
103.26
110.78
117.96
124.23
128.80
130.76
129.13
123.03
111.89
95.74
75.33
52.06
27.61
3.55
-19.01
-39.43
-57.35
-72.39
-83.92
-91.09
-92.96
-88.93
-78.99
-63.95
-45.53
-26.12
-8.35
5.61
14.63
19.01
20.34
20.89
22.89
27.84
36.38
48.43
63.45
80.68
99.14
117.68
135.16
150.69
164.06
175.76
186.79
197.99
209.34
219.55
226.07
225.60
215.05
192.60
158.45
115.12
66.99
19.41
-22.46
-54.65
-74.85
-82.50
-78.55
-65.14
-45.51
-23.69
-4.07
9.18
12.92
5.55
-12.79
-40.37
-74.25
-110.72
-145.82
-175.81
-197.84
-210.41
-213.66
-209.15
-199.35
-186.81
-173.52
-160.45
-147.53
-133.86
-118.17
-99.36
-77.19
-52.63
-27.85
-5.51
12.26
24.81
33.26
39.86
46.72
54.67
62.73
68.66
70.12
65.92
56.54
43.92
30.66
19.33
11.96
9.94
13.93
23.81
38.45
55.70
72.85
87.30
97.32
102.51
103.70
102.32
99.51
95.47
89.20
78.90
62.72
39.65
10.11
-24.05
-60.07
-95.06
-126.81
-154.16
-177.04
-196.14
-212.46
-226.89
-239.74
-250.50
-257.63
-258.79
-251.37
-233.20
-203.39
-162.81
-114.12
-61.38
-9.28
37.76
76.50
105.48
125.31
138.17
146.94
154.08
160.86
167.18
172.21
175.23
176.26
176.15
176.07
176.89
178.81
181.50
184.58
188.09
192.56
198.71
206.95
216.89
227.27
236.25
241.75
242.04
236.07
223.59
205.15
181.86
155.13
126.33
96.79
67.65
40.00
14.95
-6.30
-22.62
-33.18
-37.69
-36.84
-32.28
-26.48
-22.22
-22.00
-27.57
-39.91
-59.46
-86.42
-120.95
-162.90
-211.40
-264.34
-318.19
-368.14
-408.60
-434.19
-440.98
-427.82
-397.13
-354.71
-308.19
-264.63
-228.27
-199.42
-175.12
-151.05
-123.72
-91.79
-56.04
-18.40
19.20
55.54
89.89
121.61
149.76
173.26
191.44
204.62
214.29
222.68
232.00
243.43
256.61
269.57
279.41
283.12
278.56
264.90
242.71
213.85
181.07
147.75
117.44
93.21
76.81
68.11
65.04
64.42
63.40
60.60
56.47
52.61
50.31
49.43
48.16
43.90
34.67
20.14
1.56
-19.06
-40.07
-60.76
-80.90
-99.92
-116.16
-126.98
-129.66
-122.55
-105.88
-81.64
-52.82
-22.44
7.17
34.36
57.87
76.31
88.07
91.60
85.93
71.28
49.20
22.51
-5.34
-30.97
-51.75
-66.29
-74.49
-77.19
-75.57
-70.64
-62.89
-52.51
-39.81
-25.66
-11.77
-0.46
5.81
5.06
-3.79
-20.67
-44.38
-72.70
-102.71
-131.08
-154.63
-170.95
-178.99
-179.54
-175.35
-170.77
-170.76
-179.53
-199.28
-229.33
-266.15
-304.21
-337.23
-359.50
-366.85
-357.09
-330.07
-287.50
-232.67
-170.00
-104.42
-40.51
18.27
70.10
114.76
153.07
186.08
214.43
238.06
256.39
268.86
275.38
276.71
274.37
270.32
266.49
264.34
264.59
266.99
270.26
272.13
269.92
261.45
246.13
225.53
203.07
182.64
166.97
156.35
148.74
140.97
130.68
117.55
103.52
91.53
83.91
81.17
81.92
83.74
84.37
82.49
77.75
70.20
59.75
45.93
28.24
6.71
-17.70
-43.10
-67.13
-87.55
-102.70
-111.67
-114.15
-110.16
-99.92
-84.10
-64.18
-42.86
-23.97
-11.83
-10.06
-20.41
-42.04
-71.64
-104.51
-136.07
-163.00
-183.77
-198.27
-207.12
-211.16
-211.27
-208.49
-203.98
-198.67
-192.84
-186.11
-177.94
-168.30
-158.16
-149.27
-143.19
-140.24
-139.08
-137.34
-133.09
-126.19
-118.71
-113.94
-114.67
-121.47
-132.37
-143.82
-152.80
-158.74
-164.13
-173.40
-190.47
-216.25
-247.60
-278.35
-301.79
-313.40
-312.29
-300.76
-282.72
-261.86
-240.61
-220.31
-201.95
-186.65
-175.45
-168.51
-164.39
-160.04
-151.60
-135.82
-111.11
-77.84
-37.99
5.83
51.07
95.78
138.40
177.49
211.39
238.33
256.84
266.32
267.58
262.79
255.03
247.55
242.96
242.69
247.06
255.52
267.00
280.21
293.57
305.01
311.96
311.96
303.72
288.18
268.73
250.23
237.13
231.47
232.10
235.22
236.25
231.60
219.76
201.00
176.47
147.32
114.54
79.43
44.10
11.52
-15.25
-34.05
-44.67
-48.96
-50.27
-52.27
-57.42
-66.03
-76.14
-84.35
-87.35
-83.36
-72.89
-58.28
-42.43
-27.37
-13.45
0.47
15.96
33.85
53.48
72.67
88.43
97.84
98.89
91.00
75.21
54.05
31.21
10.80
-3.52
-9.54
-7.26
0.76
9.83
14.30
9.34
-7.31
-34.23
-66.48
-97.07
-119.30
-128.85
-125.02
-110.44
-89.77
-67.89
-48.58
-34.03
-24.92
-20.98
-21.35
-24.82
-29.86
-34.85
-38.47
-40.09
-40.14
-40.01
-41.57
-46.39
-54.92
-66.09
-77.50
-86.27
-90.02
-87.70
-79.97
-68.86
-57.23
-48.03
-43.76
-46.01
-55.13
-70.06
-88.49
-107.37
-123.68
-135.13
-140.65
-140.39
-135.47
-127.55
-118.44
-109.77
-102.65
-97.41
-93.46
-89.51
-83.98
-75.72
-64.52
-51.32
-37.94
-26.35
-17.98
-13.12
-10.94
-9.87
-8.37
-5.60
-1.62
2.79
6.75
9.82
12.26
14.77
17.98
22.06
26.54
30.61
33.48
34.76
34.59
33.49
32.17
31.31
31.50
33.24
36.98
43.04
51.57
62.40
75.02
88.61
102.22
114.97
126.17
135.38
142.33
146.72
148.10
145.96
139.80
129.63
116.20
101.09
86.56
75.05
68.58
68.27
74.11
85.11
99.62
115.64
131.21
144.40
153.49
156.97
153.80
143.72
127.55
107.27
85.86
66.69
52.87
46.51
48.40
57.99
73.66
93.03
113.32
131.60
145.07
151.39
149.10
137.87
118.68
93.52
64.92
35.43
7.34
-17.55
-37.86
-52.68
-61.48
-63.90
-59.58
-48.16
-29.69
-5.38
21.90
47.69
67.12
76.58
75.25
65.48
51.85
39.13
30.47
26.57
26.24
27.71
29.82
32.33
35.32
38.42
40.46
39.75
34.89
25.50
12.42
-2.74
-18.30
-33.03
-46.24
-57.66
-67.12
-74.52
-80.05
-84.31
-88.41
-93.67
-101.19
-111.35
-123.50
-136.05
-146.92
-154.36
-157.61
-157.37
-155.46
-154.10
-154.79
-157.56
-160.88
-162.31
-159.58
-151.27
-137.07
-117.63
-94.08
-67.93
-40.83
-14.46
9.60
30.03
46.20
58.24
66.71
72.13
74.17
71.56
62.44
45.03
18.38
-16.45
-55.93
-94.67
-126.68
-147.79
-156.72
-155.12
-146.82
-136.88
-129.30
-125.85
-126.14
-128.39
-132.04
-137.18
-143.74
-151.09
-159.00
-166.38
-171.14
-170.88
-163.35
-150.21
-134.69
-119.53
-106.26
-96.68
-90.78
-86.23
-79.11
-64.00
-39.87
-7.25
32.84
77.63
119.53
149.59
160.96
151.78
127.38
92.50
52.90
14.30
-0.07
24.46
85.05
162.29
220.52
259.12
283.25
295.93
303.00
304.67
297.39
278.73
249.89
215.77
184.40
158.03
135.99
116.49
96.64
71.90
38.91
-2.67
-49.73
-95.37
-135.40
-166.40
-185.52
-191.85
-187.70
-176.96
-163.34
-148.92
-133.04
-116.01
-98.00
-79.04
-59.82
-41.99
-27.14
-16.03
-8.27
-2.37
2.15
5.30
7.04
7.16
5.57
2.54
-1.16
-4.35
-5.69
-4.57
-0.99
4.50
10.90
17.13
22.27
25.76
27.38
27.12
24.99
20.92
14.86
7.07
-1.81
-10.75
-18.73
-25.09
-29.80
-33.45
-36.87
-40.73
-45.26
-50.23
-55.17
-59.65
-63.39
-66.22
-67.93
-68.21
-66.62
-62.81
-56.73
-48.63
-39.19
-29.26
-19.62
-10.86
-3.25
3.15
8.43
12.68
15.95
18.24
19.60
20.19
20.25
20.11
20.16
20.72
22.10
24.39
27.44
30.84
33.99
36.32
37.43
37.29
36.16
34.46
32.57
30.68
28.78
26.79
24.68
22.61
20.81
19.48
18.58
17.80
16.72
15.09
13.00
11.01
9.92
10.50
13.15
17.74
23.64
29.86
35.31
38.96
40.08
38.38
34.10
27.95
20.95
14.09
7.99
2.76
-1.87
-6.32
-10.80
-15.17
-18.99
-21.78
-23.23
-23.40
-22.67
-21.64
-20.95
-21.15
-22.56
-25.21
-28.80
-32.72
-36.22
-38.58
-39.35
-38.46
-36.23
-33.23
-30.00
-26.97
-24.30
-22.00
-20.04
-18.38
-17.08
-16.19
-15.78
-15.86
-16.37
-17.21
-18.18
-18.98
-19.24
-18.61
-16.80
-13.76
-9.60
-4.65
0.71
6.09
11.16
15.66
19.41
22.30
24.31
25.52
26.17
26.51
26.76
26.95
26.99
26.70
25.99
24.91
23.71
22.69
22.08
21.93
22.08
22.22
22.10
21.51
20.43
18.91
17.11
15.24
13.51
12.07
10.99
10.17
9.41
8.47
7.19
5.51
3.49
1.30
-0.86
-2.79
-4.38
-5.64
-6.82
-8.28
-10.39
-13.39
-17.15
-21.22
-24.94
-27.65
-28.92
-28.67
-27.02
-24.23
-20.57
-16.27
-11.61
-6.92
-2.54
1.19
4.08
6.14
7.52
8.45
9.17
9.74
10.14
10.28
10.12
9.69
9.14
8.65
8.36
8.35
8.54
8.81
9.00
9.03
8.90
8.67
8.42
8.13
7.71
7.02
6.00
4.69
3.16
1.56
-0.08
-1.75
-3.51
-5.34
-7.15
-8.80
-10.19
-11.35
-12.45
-13.72
-15.35
-17.33
-19.50
-21.53
-23.04
-23.68
-23.22
-21.56
-18.81
-15.16
-10.92
-6.38
-1.87
2.37
6.12
9.20
11.51
13.00
13.72
13.78
13.38
12.73
12.01
11.38
10.91
10.61
10.42
10.28
10.15
10.03
9.95
9.96
10.06
10.24
10.42
10.52
10.42
9.99
9.15
7.89
6.30
4.59
2.98
1.61
0.54
-0.32
-1.13
-2.04
-3.12
-4.42
-5.90
-7.52
-9.21
-10.92
-12.56
-14.16
-15.73
-17.34
-19.03
-20.74
-22.30
-23.47
-23.97
-23.58
-22.18
-19.75
-16.43
-12.47
-8.19
-3.95
-0.05
3.34
6.15
8.40
10.13
11.34
12.04
12.28
12.18
11.92
11.64
11.44
11.32
11.22
11.10
10.97
10.94
11.11
11.52
12.09
12.66
13.03
13.06
12.73
12.14
11.43
10.71
9.99
9.16
8.12
6.77
5.17
3.48
1.90
0.52
-0.68
-1.83
-3.05
-4.40
-5.80
-7.15
-8.34
-9.37
-10.30
-11.27
-12.36
-13.61
-15.04
-16.64
-18.39
-20.23
-22.01
-23.40
-24.03
-23.50
-21.59
-18.32
-13.94
-8.92
-3.78
1.02
5.19
8.59
11.24
13.24
14.72
15.78
16.40
16.51
16.05
15.04
13.68
12.32
11.30
10.84
10.94
11.34
11.74
11.93
11.89
11.77
11.70
11.75
11.81
11.67
11.16
10.22
8.97
7.56
6.14
4.76
3.42
2.05
0.62
-0.86
-2.33
-3.74
-5.08
-6.37
-7.64
-8.91
-10.16
-11.35
-12.48
-13.59
-14.74
-16.03
-17.49
-19.08
-20.64
-21.88
-22.47
-22.09
-20.55
-17.83
-14.10
-9.68
-4.98
-0.37
3.82
7.39
10.24
12.36
13.77
14.52
14.74
14.50
13.93
13.14
12.21
11.22
10.24
9.36
8.63
8.15
7.95
8.10
8.56
9.26
10.01
10.63
10.91
10.77
10.16
9.15
7.84
6.38
4.89
3.46
2.13
0.89
-0.37
-1.74
-3.30
-4.99
-6.64
-8.08
-9.14
-9.85
-10.36
-10.90
-11.68
-12.83
-14.33
-16.02
-17.66
-18.92
-19.43
-18.85
-16.98
-13.87
-9.80
-5.29
-0.89
2.95
6.02
8.34
10.04
11.28
12.14
12.61
12.68
12.31
11.59
10.61
9.58
8.67
8.02
7.69
7.60
7.60
7.53
7.28
6.84
6.32
5.84
5.48
5.25
5.04
4.70
4.10
3.18
1.96
0.53
-1.01
-2.57
-4.11
-5.63
-7.13
-8.65
-10.15
-11.61
-13.07
-14.55
-16.18
-17.99
-19.86
-21.50
-22.45
-22.26
-20.67
-17.70
-13.64
-9.03
-4.35
-0.02
3.82
7.13
9.96
12.30
14.06
15.13
15.47
15.15
14.37
13.40
12.46
11.70
11.15
10.72
10.37
10.08
9.92
9.99
10.32
10.78
11.15
11.19
10.77
9.95
8.88
7.76
6.72
5.75
4.75
3.58
2.17
0.50
-1.38
-3.36
-5.28
-7.04
-8.52
-9.70
-10.67
-11.54
-12.47
-13.65
-15.14
-16.95
-18.95
-20.90
-22.40
-23.02
-22.41
-20.40
-17.07
-12.75
-7.93
-3.08
1.44
5.43
8.87
11.79
14.21
16.06
17.19
17.53
17.11
16.12
14.87
13.68
12.73
12.13
11.83
11.79
11.94
12.23
12.60
13.00
13.32
13.44
13.24
12.63
11.59
10.21
8.64
7.05
5.60
4.33
3.20
2.09
0.88
-0.45
-1.86
-3.25
-4.55
-5.71
-6.74
-7.68
-8.58
-9.49
-10.43
-11.42
-12.46
-13.57
-14.82
-16.23
-17.85
-19.59
-21.30
-22.64
-23.27
-22.89
-21.37
-18.71
-15.13
-10.91
-6.39
-1.90
2.28
5.94
8.94
11.30
13.09
14.44
15.44
16.10
16.40
16.27
15.74
14.87
13.82
12.78
11.97
11.53
11.53
11.91
12.49
13.02
13.26
13.09
12.50
11.58
10.47
9.24
7.92
6.51
5.06
3.63
2.31
1.16
0.18
-0.68
-1.49
-2.32
-3.28
-4.39
-5.68
-7.11
-8.58
-9.95
-11.12
-12.07
-12.89
-13.77
-14.90
-16.40
-18.23
-20.22
-22.07
-23.40
-23.82
-23.03
-20.86
-17.35
-12.81
-7.67
-2.49
2.31
6.43
9.79
12.43
14.40
15.74
16.42
16.47
15.97
15.09
14.05
13.04
12.18
11.48
10.94
10.57
10.42
10.51
10.85
11.31
11.74
11.97
11.92
11.59
11.03
10.27
9.31
8.14
6.77
5.26
3.76
2.36
1.13
0.06
-0.92
-1.90
-2.94
-4.11
-5.43
-6.87
-8.39
-9.83
-11.06
-11.98
-12.61
-13.06
-13.57
-14.38
-15.67
-17.51
-19.73
-22.00
-23.82
-24.64
-24.01
-21.73
-17.94
-13.03
-7.58
-2.21
2.62
6.59
9.65
11.89
13.46
14.54
15.22
15.53
15.44
14.98
14.19
13.21
12.21
11.35
10.73
10.39
10.33
10.53
10.97
11.59
12.29
12.86
13.07
12.73
11.72
10.10
8.06
5.93
3.96
2.30
0.91
-0.35
-1.62
-2.98
-4.35
-5.62
-6.72
-7.69
-8.70
-9.93
-11.47
-13.31
-15.34
-17.40
-19.31
-20.89
-21.90
-22.06
-21.09
-18.83
-15.32
-10.90
-6.07
-1.37
2.78
6.17
8.81
10.81
12.28
13.25
13.72
13.68
13.21
12.48
11.69
11.02
10.55
10.27
10.16
10.18
10.32
10.55
10.79
10.92
10.84
10.45
9.77
8.87
7.88
6.90
5.96
5.03
4.02
2.82
1.36
-0.37
-2.32
-4.35
-6.32
-8.10
-9.62
-10.90
-12.05
-13.22
-14.51
-16.03
-17.82
-19.87
-22.06
-24.18
-25.84
-26.59
-25.97
-23.75
-20.01
-15.15
-9.79
-4.56
0.16
4.20
7.63
10.57
13.03
14.95
16.26
16.92
17.02
16.69
16.07
15.23
14.23
13.10
11.98
11.04
10.45
10.33
10.64
11.21
11.78
12.11
12.02
11.42
10.38
8.99
7.43
5.83
4.31
2.87
1.43
-0.10
-1.82
-3.69
-5.61
-7.38
-8.86
-10.01
-10.92
-11.78
-12.81
-14.15
-15.85
-17.83
-19.92
-21.83
-23.21
-23.66
-22.82
-20.49
-16.71
-11.85
-6.46
-1.17
3.50
7.29
10.18
12.38
14.10
15.50
16.60
17.32
17.51
17.11
16.24
15.16
14.19
13.59
13.44
13.57
13.73
13.66
13.28
12.68
12.03
11.48
11.03
10.53
9.80
8.74
7.36
5.83
4.35
3.04
1.90
0.79
-0.46
-1.98
-3.78
-5.70
-7.55
-9.10
-10.25
-11.01
-11.56
-12.17
-13.11
-14.56
-16.55
-18.92
-21.36
-23.44
-24.68
-24.72
-23.31
-20.41
-16.23
-11.15
-5.73
-0.54
3.94
7.45
9.96
11.66
12.83
13.69
14.33
14.72
14.83
14.62
14.17
13.64
13.15
12.75
12.41
12.06
11.70
11.40
11.30
11.44
11.77
12.04
11.97
11.40
10.34
8.97
7.50
6.07
4.67
3.24
1.71
0.10
-1.53
-3.13
-4.71
-6.30
-7.86
-9.28
-10.42
-11.21
-11.78
-12.35
-13.21
-14.55
-16.37
-18.56
-20.89
-23.08
-24.77
-25.56
-25.04
-22.90
-19.15
-14.10
-8.39
-2.71
2.34
6.41
9.44
11.49
12.74
13.34
13.49
13.38
13.18
12.97
12.70
12.26
11.56
10.66
9.76
9.13
8.93
9.14
9.57
9.95
10.04
9.76
9.13
8.23
7.15
5.95
4.70
3.47
2.32
1.22
0.13
-1.09
-2.49
-4.09
-5.76
-7.36
-8.78
-9.98
-11.02
-12.03
-13.20
-14.65
-16.46
-18.51
-20.56
-22.15
-22.77
-21.97
-19.55
-15.63
-10.67
-5.29
-0.09
4.49
8.24
11.11
13.11
14.25
14.58
14.22
13.39
12.39
11.51
10.87
10.50
10.24
9.97
9.62
9.25
8.95
8.80
8.83
8.93
9.00
8.89
8.52
7.80
6.75
5.42
3.91
2.41
1.07
-0.04
-0.97
-1.95
-3.22
-4.91
-6.98
-9.16
-11.11
-12.60
-13.61
-14.34
-15.11
-16.21
-17.78
-19.78
-22.04
-24.34
-26.36
-27.80
-28.32
-27.59
-25.41
-21.79
-16.97
-11.39
-5.61
-0.15
4.65
8.63
11.82
14.28
16.10
17.27
17.75
17.49
16.59
15.28
13.89
12.79
12.19
12.09
12.28
12.49
12.51
12.28
11.91
11.52
11.16
10.76
10.18
9.32
8.18
6.89
5.58
4.35
3.20
2.00
0.62
-0.99
-2.83
-4.80
-6.76
-8.59
-10.18
-11.48
-12.54
-13.48
-14.48
-15.73
-17.35
-19.32
-21.45
-23.40
-24.73
-25.04
-24.01
-21.55
-17.77
-13.02
-7.72
-2.35
2.70
7.16
10.89
13.85
16.04
17.48
18.25
18.43
18.18
17.65
17.02
16.39
15.81
15.30
14.85
14.47
14.21
14.13
14.24
14.50
14.75
14.78
14.43
13.61
12.37
10.91
9.44
8.09
6.86
5.67
4.35
2.83
1.11
-0.75
-2.68
-4.62
-6.56
-8.46
-10.28
-11.91
-13.29
-14.42
-15.37
-16.31
-17.42
-18.87
-20.76
-23.04
-25.46
-27.58
-28.85
-28.76
-26.99
-23.53
-18.69
-13.01
-7.11
-1.52
3.40
7.52
10.86
13.52
15.61
17.14
18.05
18.29
17.85
16.85
15.56
14.26
13.19
12.50
12.18
12.15
12.32
12.60
12.96
13.37
13.77
14.03
13.99
13.47
12.36
10.72
8.75
6.71
4.87
3.34
2.05
0.85
-0.45
-1.96
-3.67
-5.46
-7.18
-8.73
-10.02
-11.07
-11.92
-12.67
-13.47
-14.42
-15.67
-17.27
-19.24
-21.46
-23.66
-25.36
-26.00
-25.05
-22.26
-17.76
-12.05
-5.88
0.07
5.30
9.63
13.08
15.70
17.52
18.52
18.70
18.20
17.30
16.29
15.37
14.58
13.84
13.06
12.24
11.49
10.94
10.65
10.55
10.48
10.29
9.95
9.54
9.16
8.83
8.41
7.71
6.57
4.97
3.10
1.22
-0.46
-1.88
-3.20
-4.64
-6.39
-8.48
-10.72
-12.79
-14.41
-15.48
-16.16
-16.81
-17.83
-19.52
-21.94
-24.84
-27.76
-30.09
-31.26
-30.79
-28.48
-24.43
-19.03
-12.86
-6.55
-0.61
4.64
9.12
12.83
15.86
18.19
19.82
20.67
20.76
20.19
19.15
17.86
16.55
15.38
14.48
13.86
13.52
13.38
13.36
13.35
13.25
12.95
12.40
11.53
10.39
9.03
7.56
6.09
4.71
3.45
2.27
1.12
-0.08
-1.39
-2.86
-4.51
-6.30
-8.12
-9.81
-11.28
-12.50
-13.55
-14.60
-15.83
-17.41
-19.38
-21.70
-24.18
-26.52
-28.30
-29.06
-28.41
-26.09
-22.12
-16.76
-10.46
-3.84
2.49
8.01
12.39
15.53
17.60
18.87
19.63
20.01
20.01
19.51
18.45
16.94
15.28
13.85
12.91
12.54
12.58
12.83
13.10
13.32
13.51
13.66
13.71
13.54
13.06
12.19
10.99
9.50
7.81
5.92
3.88
1.75
-0.36
-2.29
-3.96
-5.37
-6.62
-7.85
-9.19
-10.65
-12.15
-13.57
-14.83
-15.97
-17.14
-18.53
-20.34
-22.61
-25.22
-27.83
-29.98
-31.13
-30.85
-28.86
-25.16
-19.98
-13.80
-7.20
-0.73
5.14
10.13
14.09
16.99
18.85
19.78
19.91
19.42
18.52
17.41
16.31
15.37
14.69
14.25
13.96
13.72
13.46
13.18
12.96
12.88
12.96
13.09
13.02
12.49
11.33
9.58
7.48
5.29
3.29
1.55
0.02
-1.45
-3.01
-4.72
-6.53
-8.34
-10.02
-11.50
-12.77
-13.89
-14.97
-16.16
-17.60
-19.44
-21.76
-24.52
-27.49
-30.18
-31.95
-32.09
-30.13
-25.98
-20.06
-13.14
-6.10
0.33
5.80
10.29
13.93
16.89
19.18
20.73
21.42
21.28
20.47
19.25
17.93
16.66
15.53
14.52
13.61
12.88
12.40
12.27
12.44
12.78
13.02
12.93
12.35
11.27
9.82
8.19
6.60
5.17
3.90
2.64
1.23
-0.49
-2.54
-4.81
-7.06
-9.05
-10.66
-11.89
-12.87
-13.84
-15.01
-16.57
-18.61
-21.05
-23.57
-25.62
-26.59
-25.91
-23.35
-19.03
-13.44
-7.21
-0.96
4.85
9.97
14.28
17.71
20.18
21.59
21.88
21.13
19.57
17.55
15.46
13.62
12.19
11.21
10.61
10.33
10.30
10.47
10.73
10.96
10.98
10.66
9.95
8.85
7.47
5.91
4.28
2.66
1.11
-0.38
-1.86
-3.43
-5.19
-7.21
-9.43
-11.72
-13.87
-15.71
-17.16
-18.29
-19.29
-20.39
-21.81
-23.72
-26.10
-28.79
-31.38
-33.32
-33.99
-32.87
-29.71
-24.61
-18.03
-10.67
-3.26
3.54
9.34
13.99
17.56
20.23
22.15
23.37
23.84
23.51
22.41
20.78
19.01
17.47
16.42
15.92
15.84
16.00
16.26
16.52
16.79
17.06
17.27
17.30
17.00
16.25
15.02
13.37
11.51
9.64
7.93
6.44
5.11
3.83
2.47
1.00
-0.54
-2.05
-3.47
-4.78
-5.98
-7.09
-8.11
-9.06
-9.99
-10.99
-12.13
-13.42
-14.81
-16.19
-17.46
-18.61
-19.72
-21.03
-22.77
-25.11
-28.08
-31.43
-34.70
-37.21
-38.26
-37.32
-34.15
-28.95
-22.24
-14.71
-7.05
0.27
6.94
12.74
17.52
21.17
23.58
24.83
25.12
24.75
24.03
23.17
22.23
21.23
20.17
19.14
18.33
17.93
18.05
18.59
19.32
19.91
20.14
19.90
19.32
18.55
17.72
16.79
15.63
14.10
12.18
10.00
7.80
5.75
3.94
2.28
0.71
-0.85
-2.34
-3.66
-4.73
-5.53
-6.15
-6.71
-7.34
-8.13
-9.08
-10.21
-11.49
-12.87
-14.26
-15.57
-16.71
-17.71
-18.71
-19.98
-21.81
-24.38
-27.66
-31.27
-34.56
-36.75
-37.12
-35.30
-31.27
-25.44
-18.47
-11.04
-3.76
2.98
8.88
13.80
17.64
20.34
21.96
22.64
22.59
22.06
21.27
20.31
19.29
18.25
17.25
16.41
15.82
15.59
15.75
16.28
17.04
17.83
18.38
18.46
17.94
16.82
15.28
13.56
11.88
10.34
8.92
7.52
6.03
4.42
2.67
0.85
-0.99
-2.76
-4.40
-5.82
-7.04
-8.10
-9.12
-10.27
-11.56
-12.99
-14.41
-15.68
-16.76
-17.65
-18.48
-19.41
-20.61
-22.22
-24.30
-26.78
-29.37
-31.55
-32.65
-32.07
-29.47
-24.93
-18.97
-12.30
-5.61
0.61
6.12
10.82
14.67
17.60
19.54
20.51
20.67
20.28
19.58
18.73
17.77
16.68
15.52
14.41
13.57
13.19
13.33
13.88
14.60
15.21
15.50
15.36
14.80
13.94
12.87
11.69
10.44
9.08
7.57
5.85
3.97
2.02
0.15
-1.55
-3.04
-4.38
-5.67
-6.97
-8.30
-9.62
-10.90
-12.11
-13.30
-14.52
-15.82
-17.27
-18.91
-20.82
-23.02
-25.44
-27.82
-29.73
-30.60
-29.96
-27.56
-23.49
-18.12
-12.01
-5.80
0.03
5.14
9.41
12.83
15.44
17.33
18.51
18.98
18.79
18.02
16.85
15.50
14.15
12.92
11.84
10.93
10.19
9.70
9.60
9.94
10.64
11.48
12.13
12.26
11.69
10.43
8.66
6.68
4.75
3.01
1.46
-0.02
-1.56
-3.22
-4.96
-6.68
-8.25
-9.61
-10.77
-11.85
-13.02
-14.50
-16.46
-18.94
-21.78
-24.59
-26.79
-27.76
-27.02
-24.40
-20.08
-14.55
-8.45
-2.39
3.18
7.97
11.87
14.88
17.01
18.30
18.79
18.53
17.62
16.25
14.71
13.24
12.07
11.26
10.76
10.43
10.15
9.88
9.72
9.76
10.01
10.32
10.45
10.17
9.39
8.16
6.68
5.12
3.59
2.09
0.54
-1.08
-2.79
-4.54
-6.31
-8.10
-9.96
-11.90
-13.83
-15.66
-17.25
-18.59
-19.80
-21.11
-22.80
-25.01
-27.68
-30.44
-32.72
-33.85
-33.33
-30.93
-26.79
-21.34
-15.16
-8.81
-2.72
2.84
7.73
11.87
15.20
17.69
19.38
20.36
20.73
20.62
20.12
19.34
18.42
17.53
16.85
16.45
16.30
16.24
16.12
15.82
15.38
14.92
14.56
14.31
14.05
13.60
12.78
11.53
9.90
7.97
5.90
3.77
1.70
-0.23
-1.97
-3.50
-4.86
-6.12
-7.39
-8.72
-10.13
-11.60
-13.10
-14.59
-16.08
-17.62
-19.26
-21.12
-23.28
-25.68
-28.07
-29.95
-30.71
-29.81
-27.03
-22.54
-16.87
-10.69
-4.58
1.10
6.15
10.52
14.16
17.02
19.13
20.53
21.34
21.65
21.50
20.90
19.92
18.72
17.53
16.57
15.95
15.66
15.54
15.47
15.34
15.15
14.88
14.50
13.92
13.06
11.90
10.52
9.02
7.50
5.96
4.36
2.66
0.87
-0.91
-2.56
-3.98
-5.19
-6.30
-7.47
-8.79
-10.27
-11.80
-13.18
-14.24
-14.96
-15.45
-15.96
-16.82
-18.28
-20.48
-23.26
-26.25
-28.85
-30.39
-30.29
-28.24
-24.31
-18.93
-12.76
-6.46
-0.61
4.49
8.70
12.01
14.46
16.06
16.91
17.12
16.87
16.34
15.69
14.95
14.12
13.19
12.24
11.43
10.96
11.00
11.54
12.41
13.32
13.95
14.11
13.68
12.73
11.38
9.72
7.86
5.89
3.94
2.11
0.46
-1.05
-2.54
-4.13
-5.87
-7.69
-9.43
-10.91
-12.04
-12.87
-13.59
-14.43
-15.60
-17.23
-19.31
-21.61
-23.72
-25.06
-25.08
-23.34
-19.77
-14.68
-8.68
-2.46
3.33
8.26
12.14
14.96
16.82
17.86
18.27
18.18
17.68
16.84
15.67
14.29
12.87
11.63
10.77
10.38
10.42
10.72
11.10
11.39
11.51
11.44
11.17
10.68
9.94
8.91
7.58
5.99
4.28
2.61
1.14
-0.06
-1.06
-2.08
-3.30
-4.88
-6.78
-8.82
-10.79
-12.49
-13.88
-15.01
-16.03
-17.08
-18.26
-19.68
-21.42
-23.56
-26.14
-29.00
-31.81
-34.08
-35.21
-34.71
-32.31
-27.99
-22.13
-15.28
-8.10
-1.19
4.99
10.19
14.35
17.47
19.62
20.85
21.27
21.04
20.41
19.64
18.97
18.50
18.19
17.98
17.79
17.63
17.57
17.64
17.80
17.91
17.80
17.35
16.50
15.33
13.96
12.52
11.10
9.74
8.44
7.10
5.63
3.97
2.11
0.13
-1.80
-3.47
-4.78
-5.72
-6.46
-7.22
-8.25
-9.60
-11.21
-12.84
-14.32
-15.56
-16.65
-17.83
-19.38
-21.53
-24.32
-27.56
-30.84
-33.55
-35.07
-34.86
-32.64
-28.43
-22.63
-15.79
-8.57
-1.53
4.84
10.28
14.64
17.91
20.14
21.51
22.14
22.21
21.86
21.25
20.50
19.74
19.07
18.54
18.12
17.81
17.61
17.54
17.65
17.90
18.16
18.25
17.96
17.18
15.95
14.39
12.68
11.00
9.47
8.10
6.91
5.85
4.81
3.68
2.30
0.64
-1.24
-3.10
-4.70
-5.84
-6.52
-6.96
-7.49
-8.40
-9.79
-11.58
-13.52
-15.37
-16.98
-18.37
-19.72
-21.23
-23.11
-25.47
-28.25
-31.21
-33.95
-35.87
-36.39
-35.05
-31.64
-26.30
-19.50
-11.91
-4.28
2.77
8.75
13.41
16.69
18.77
19.84
20.18
19.97
19.35
18.44
17.29
16.06
14.91
14.02
13.57
13.60
14.09
14.85
15.68
16.37
16.77
16.80
16.44
15.70
14.61
13.21
11.60
9.91
8.28
6.76
5.33
3.88
2.31
0.64
-1.07
-2.73
-4.30
-5.79
-7.27
-8.73
-10.11
-11.34
-12.38
-13.31
-14.34
-15.65
-17.37
-19.47
-21.83
-24.18
-26.23
-27.62
-27.94
-26.82
-24.04
-19.63
-13.88
-7.34
-0.67
5.52
10.75
14.77
17.50
19.02
19.53
19.29
18.56
17.58
16.50
15.42
14.42
13.51
12.69
11.97
11.32
10.77
10.38
10.24
10.39
10.80
11.24
11.46
11.20
10.32
8.92
7.22
5.48
3.89
2.53
1.32
0.15
-1.08
-2.43
-3.94
-5.59
-7.36
-9.17
-10.95
-12.60
-14.07
-15.36
-16.61
-17.98
-19.67
-21.84
-24.52
-27.63
-30.89
-33.90
-36.12
-37.03
-36.18
-33.35
-28.64
-22.46
-15.44
-8.24
-1.43
4.64
9.82
14.13
17.58
20.18
21.92
22.81
22.95
22.50
21.70
20.78
19.90
19.20
18.71
18.42
18.25
18.13
17.97
17.76
17.53
17.28
17.05
16.79
16.40
15.79
14.88
13.64
12.10
10.29
8.26
6.11
3.95
1.90
0.07
-1.55
-3.06
-4.64
-6.40
-8.37
-10.39
-12.24
-13.80
-15.07
-16.20
-17.44
-19.01
-21.01
-23.49
-26.38
-29.52
-32.56
-34.98
-36.09
-35.27
-32.19
-26.98
-20.21
-12.72
-5.32
1.40
7.17
11.96
15.87
18.98
21.38
23.07
24.07
24.41
24.14
23.39
22.32
21.15
20.04
19.09
18.31
17.70
17.22
16.90
16.74
16.70
16.63
16.36
15.72
14.72
13.48
12.21
11.08
10.09
9.09
7.87
6.29
4.38
2.35
0.41
-1.30
-2.80
-4.24
-5.78
-7.48
-9.29
-11.07
-12.70
-14.14
-15.44
-16.67
-17.92
-19.28
-20.87
-22.84
-25.31
-28.28
-31.48
-34.32
-36.06
-36.02
-33.79
-29.41
-23.31
-16.19
-8.77
-1.67
4.69
10.03
14.23
17.25
19.17
20.13
20.32
19.94
19.15
18.09
16.90
15.73
14.70
13.91
13.41
13.21
13.25
13.48
13.82
14.17
14.45
14.52
14.28
13.67
12.67
11.33
9.73
8.01
6.27
4.58
2.93
1.24
-0.58
-2.62
-4.84
-7.06
-9.00
-10.48
-11.49
-12.23
-13.05
-14.28
-16.11
-18.55
-21.37
-24.22
-26.68
-28.25
-28.48
-27.01
-23.67
-18.64
-12.37
-5.57
1.03
6.79
11.33
14.55
16.56
17.63
18.07
18.12
17.90
17.36
16.45
15.22
13.85
12.64
11.89
11.70
11.98
12.49
12.97
13.28
13.40
13.33
13.09
12.67
12.05
11.27
10.41
9.48
8.48
7.30
5.85
4.13
2.22
0.23
-1.75
-3.66
-5.47
-7.15
-8.66
-10.00
-11.25
-12.53
-13.95
-15.55
-17.23
-18.87
-20.41
-21.96
-23.74
-25.98
-28.73
-31.75
-34.53
-36.41
-36.74
-35.09
-31.38
-25.84
-19.02
-11.57
-4.15
2.70
8.63
13.49
17.27
20.00
21.81
22.80
23.09
22.85
22.24
21.43
20.57
19.75
19.02
18.38
17.85
17.47
17.30
17.38
17.71
18.20
18.66
18.87
18.61
17.77
16.38
14.62
12.74
10.99
9.46
8.12
6.80
5.35
3.68
1.89
0.13
-1.44
-2.76
-3.88
-4.95
-6.11
-7.42
-8.86
-10.38
-11.89
-13.35
-14.74
-16.06
-17.36
-18.73
-20.35
-22.38
-24.96
-28.05
-31.40
-34.45
-36.52
-36.91
-35.14
-31.09
-25.03
-17.62
-9.65
-1.94
4.85
10.33
14.39
17.18
18.99
20.13
20.85
21.25
21.32
21.00
20.30
19.32
18.20
17.10
16.15
15.38
14.80
14.42
14.23
14.23
14.35
14.47
14.42
14.09
13.42
12.44
11.22
9.80
8.23
6.51
4.70
2.88
1.17
-0.30
-1.48
-2.45
-3.34
-4.35
-5.62
-7.17
-8.91
-10.66
-12.23
-13.49
-14.45
-15.22
-16.07
-17.28
-19.11
-21.64
-24.69
-27.76
-30.15
-31.10
-30.05
-26.81
-21.63
-15.09
-7.95
-0.95
5.36
10.58
14.58
17.37
19.06
19.83
19.84
19.19
17.97
16.33
14.47
12.69
11.25
10.29
9.74
9.42
9.17
8.92
8.71
8.63
8.74
8.87
8.82
8.36
7.39
5.96
4.26
2.50
0.80
-0.82
-2.45
-4.16
-5.98
-7.88
-9.79
-11.64
-13.43
-15.21
-17.07
-19.06
-21.16
-23.30
-25.38
-27.39
-29.39
-31.46
-33.53
-35.31
-36.25
-35.76
-33.41
-29.12
-23.22
-16.31
-9.06
-2.05
4.33
9.85
14.40
17.94
20.49
22.14
23.01
23.25
23.00
22.39
21.62
20.91
20.44
20.28
20.35
20.42
20.23
19.62
18.58
17.26
15.88
14.59
13.44
12.37
11.21
9.83
8.13
6.13
3.84
1.31
-1.50
-4.57
-7.85
-11.13
-14.12
-16.55
-18.32
-19.60
-20.74
-22.11
-23.93
-26.12
-28.37
-30.22
-31.23
-31.02
-29.33
-26.03
-21.16
-15.01
-8.13
-1.22
5.07
10.29
14.32
17.32
19.55
21.19
22.26
22.65
22.23
21.02
19.19
17.10
15.14
13.61
12.68
12.34
12.48
12.88
13.38
13.80
14.06
14.12
13.98
13.66
13.16
12.44
11.40
9.97
8.13
5.94
3.49
0.89
-1.82
-4.62
-7.50
-10.39
-13.20
-15.85
-18.39
-20.94
-23.68
-26.64
-29.62
-32.10
-33.42
-32.89
-30.17
-25.37
-19.03
-11.97
-4.99
1.33
6.74
11.25
15.01
18.11
20.51
22.10
22.73
22.40
21.22
19.47
17.48
15.56
13.91
12.63
11.68
10.99
10.49
10.14
9.94
9.89
9.89
9.72
9.13
7.92
6.01
3.58
0.94
-1.59
-3.80
-5.68
-7.37
-9.04
-10.83
-12.78
-14.91
-17.25
-19.85
-22.74
-25.75
-28.49
-30.36
-30.69
-29.01
-25.24
-19.73
-13.12
-6.20
0.39
6.27
11.25
15.33
18.46
20.57
21.58
21.52
20.55
18.98
17.21
15.54
14.15
13.06
12.19
11.44
10.79
10.29
9.98
9.89
9.97
10.11
10.09
9.73
8.84
7.32
5.18
2.51
-0.45
-3.42
-6.12
-8.36
-10.11
-11.52
-12.87
-14.47
-16.56
-19.22
-22.32
-25.52
-28.30
-30.05
-30.19
-28.29
-24.27
-18.39
-11.28
-3.78
3.32
9.45
14.37
18.11
20.83
22.71
23.78
24.03
23.44
22.13
20.33
18.35
16.50
14.98
13.93
13.34
13.22
13.48
13.98
14.51
14.87
14.88
14.48
13.64
12.41
10.83
8.94
6.80
4.49
2.16
-0.05
-2.00
-3.67
-5.13
-6.53
-8.09
-9.93
-12.11
-14.48
-16.85
-19.00
-20.81
-22.30
-23.68
-25.20
-27.12
-29.59
-32.58
-35.80
-38.68
-40.45
-40.29
-37.63
-32.40
-25.10
-16.64
-8.06
-0.17
6.61
12.24
16.82
20.50
23.30
25.23
26.32
26.67
26.47
25.85
24.94
23.78
22.45
21.09
19.90
19.04
18.62
18.59
18.77
18.93
18.84
18.34
17.42
16.10
14.52
12.82
11.17
9.68
8.30
6.94
5.39
3.52
1.27
-1.22
-3.71
-6.00
-7.99
-9.70
-11.24
-12.72
-14.18
-15.60
-16.97
-18.31
-19.71
-21.24
-22.98
-25.00
-27.41
-30.35
-33.85
-37.72
-41.37
-43.97
-44.57
-42.49
-37.60
-30.38
-21.75
-12.74
-4.21
3.37
9.85
15.28
19.72
23.14
25.43
26.51
26.43
25.40
23.80
22.07
20.57
19.50
18.87
18.52
18.26
17.97
17.60
17.24
16.99
16.85
16.73
16.46
15.85
14.78
13.31
11.60
9.83
8.15
6.55
4.95
3.18
1.17
-1.10
-3.51
-5.95
-8.29
-10.46
-12.46
-14.26
-15.86
-17.27
-18.56
-19.92
-21.59
-23.77
-26.42
-29.17
-31.35
-32.13
-30.85
-27.22
-21.47
-14.24
-6.36
1.37
8.37
14.30
19.04
22.53
24.78
25.82
25.73
24.71
23.03
21.00
18.91
16.95
15.24
13.77
12.55
11.57
10.86
10.46
10.34
10.39
10.44
10.26
9.69
8.66
7.24
5.57
3.83
2.11
0.38
-1.44
-3.43
-5.61
-7.91
-10.19
-12.32
-14.26
-16.09
-18.02
-20.29
-23.10
-26.42
-30.01
-33.34
-35.74
-36.51
-35.19
-31.65
-26.13
-19.16
-11.42
-3.58
3.83
10.39
15.88
20.16
23.17
24.96
25.61
25.30
24.23
22.65
20.79
18.86
17.07
15.57
14.46
13.77
13.49
13.49
13.66
13.89
14.06
14.09
13.88
13.29
12.19
10.50
8.26
5.68
3.06
0.69
-1.32
-3.07
-4.78
-6.74
-9.10
-11.83
-14.71
-17.47
-19.87
-21.82
-23.47
-25.11
-27.12
-29.74
-32.97
-36.38
-39.27
-40.81
-40.27
-37.29
-31.97
-24.80
-16.56
-8.03
0.09
7.33
13.45
18.36
22.12
24.83
26.56
27.38
27.37
26.62
25.30
23.65
21.89
20.27
18.93
17.92
17.27
16.94
16.89
17.07
17.38
17.67
17.73
17.33
16.32
14.70
12.60
10.28
7.98
5.91
4.11
2.53
1.00
-0.67
-2.61
-4.88
-7.40
-10.04
-12.60
-14.89
-16.82
-18.38
-19.72
-21.09
-22.84
-25.24
-28.41
-32.12
-35.82
-38.69
-39.89
-38.78
-35.16
-29.33
-21.91
-13.67
-5.33
2.58
9.71
15.84
20.82
24.56
27.00
28.22
28.37
27.65
26.32
24.64
22.87
21.22
19.84
18.79
18.04
17.52
17.18
16.99
16.91
16.92
16.88
16.67
16.16
15.30
14.15
12.79
11.30
9.67
7.86
5.85
3.69
1.48
-0.72
-2.90
-5.16
-7.59
-10.17
-12.81
-15.31
-17.48
-19.26
-20.71
-22.03
-23.42
-25.08
-27.13
-29.65
-32.59
-35.72
-38.56
-40.38
-40.42
-38.06
-33.14
-25.99
-17.43
-8.44
0.05
7.41
13.37
17.97
21.35
23.69
25.10
25.64
25.33
24.27
22.64
20.68
18.70
16.93
15.48
14.36
13.48
12.80
12.37
12.27
12.56
13.12
13.69
13.93
13.56
12.46
10.73
8.65
6.48
4.43
2.54
0.70
-1.22
-3.35
-5.65
-7.97
-10.06
-11.70
-12.87
-13.70
-14.56
-15.88
-17.97
-20.94
-24.63
-28.55
-32.01
-34.25
-34.54
-32.48
-28.01
-21.54
-13.77
-5.59
2.21
9.07
14.67
18.98
22.05
23.97
24.82
24.66
23.59
21.79
19.56
17.24
15.19
13.61
12.58
12.04
11.87
11.97
12.24
12.63
13.01
13.26
13.20
12.68
11.65
10.13
8.23
6.13
3.97
1.84
-0.25
-2.34
-4.50
-6.77
-9.16
-11.58
-13.91
-16.00
-17.79
-19.28
-20.61
-22.01
-23.77
-26.13
-29.20
-32.85
-36.63
-39.90
-41.89
-41.90
-39.51
-34.61
-27.52
-18.87
-9.47
-0.25
8.03
14.88
20.11
23.86
26.37
27.93
28.72
28.85
28.38
27.40
26.08
24.59
23.12
21.82
20.80
20.12
19.80
19.79
19.94
20.08
20.00
19.59
18.82
17.77
16.50
15.07
13.45
11.67
9.73
7.73
5.74
3.79
1.82
-0.23
-2.45
-4.81
-7.22
-9.55
-11.70
-13.67
-15.50
-17.25
-18.98
-20.71
-22.49
-24.37
-26.49
-28.95
-31.81
-34.99
-38.12
-40.62
-41.74
-40.79
-37.33
-31.39
-23.50
-14.52
-5.44
2.96
10.20
16.12
20.74
24.15
26.43
27.65
27.93
27.43
26.39
25.02
23.53
22.10
20.84
19.83
19.12
18.68
18.53
18.64
18.99
19.50
20.04
20.35
20.21
19.44
18.09
16.37
14.57
12.92
11.46
10.03
8.42
6.43
4.06
1.48
-1.04
-3.27
-5.06
-6.46
-7.62
-8.75
-10.07
-11.69
-13.62
-15.71
-17.76
-19.57
-21.03
-22.21
-23.33
-24.71
-26.65
-29.34
-32.78
-36.64
-40.33
-43.04
-43.96
-42.43
-38.23
-31.62
-23.30
-14.20
-5.16
3.19
10.49
16.60
21.45
24.96
27.07
27.84
27.49
26.42
25.03
23.63
22.40
21.36
20.49
19.79
19.29
